Time,Signal
0.0,0.0
0.002777777777777778,0.020360767547893555
0.005555555555555556,0.04071309344359583
0.008333333333333333,0.06104853953485687
0.011111111111111112,0.08135867466785829
0.01388888888888889,0.10163507818280189
0.016666666666666666,0.12186934340514748
0.019444444444444445,0.14205308113105242
0.022222222222222223,0.16217792310556745
0.025,0.1822355254921475
0.02777777777777778,0.20221757233203796
0.030555555555555558,0.22211577899210336
0.03333333333333333,0.24192189559966773
0.036111111111111115,0.2616277104629436
0.03888888888888889,0.28122505347563065
0.04166666666666667,0.3007057995042732
0.044444444444444446,0.3200618717569716
0.04722222222222222,0.33928524513205127
0.05,0.3583679495453003
0.05277777777777778,0.37730207323439696
0.05555555555555556,0.39607976603915684
0.058333333333333334,0.4146932426562391
0.061111111111111116,0.4331347858669631
0.0638888888888889,0.45139674973689686
0.06666666666666667,0.4694715627858908
0.06944444444444445,0.48735173112724234
0.07222222222222223,0.5050298415746901
0.075,0.5224985647159488
0.07777777777777778,0.5397506579515129
0.08055555555555556,0.5567789684974646
0.08333333333333334,0.5735764363510462
0.08611111111111111,0.5901360972177645
0.08888888888888889,0.6064510853988134
0.09166666666666667,0.6225146366376196
0.09444444444444444,0.6383200909243283
0.09722222222222222,0.6538608952570697
0.1,0.6691306063588583
0.10277777777777779,0.684122893349
0.10555555555555556,0.6988315403679
0.10833333333333334,0.7132504491541817
0.11111111111111112,0.7273736415730487
0.11388888888888889,0.7411952620948437
0.11666666666666667,0.754709580222772
0.11944444444444445,0.7679109928687886
0.12222222222222223,0.7807940266766593
0.125,0.7933533402912352
0.1277777777777778,0.8055837265729995
0.13055555555555556,0.8174801147569666
0.13333333333333333,0.8290375725550417
0.13611111111111113,0.8402513082009657
0.1388888888888889,0.8511166724369997
0.14166666666666666,0.8616291604415257
0.14444444444444446,0.8717844136967625
0.14722222222222223,0.8815782217958232
0.15,0.8910065241883678
0.1527777777777778,0.9000654118641213
0.15555555555555556,0.9087511289735644
0.15833333333333333,0.917060074385124
0.16111111111111112,0.9249888031782162
0.1638888888888889,0.932534028071522
0.16666666666666669,0.9396926207859084
0.16944444444444445,0.9464616133414243
0.17222222222222222,0.9528381992878361
0.17500000000000002,0.958819734868193
0.17777777777777778,0.964403740114939
0.18055555555555555,0.969587899878116
0.18333333333333335,0.9743700647852352
0.18611111111111112,0.978748252132414
0.18888888888888888,0.9827206467064133
0.19166666666666668,0.9862856015372314
0.19444444444444445,0.9894416385809445
0.19722222222222224,0.9921874493325091
0.2,0.9945218953682734
0.20277777777777778,0.9964440088179716
0.20555555555555557,0.9979529927660075
0.20833333333333334,0.9990482215818578
0.2111111111111111,0.9997292411794617
0.2138888888888889,0.9999957692054863
0.21666666666666667,0.9998476951563913
0.21944444444444444,0.9992850804242445
0.22222222222222224,0.9983081582712682
0.225,0.996917333733128
0.22777777777777777,0.9951131834510031
0.23055555555555557,0.9928964554325089
0.23333333333333334,0.9902680687415703
0.23611111111111113,0.987229113117374
0.2388888888888889,0.9837808485225588
0.24166666666666667,0.9799247046208296
0.24444444444444446,0.9756622801842142
0.24722222222222223,0.970995342430206
0.25,0.9659258262890683
0.25277777777777777,0.9604558336016056
0.2555555555555556,0.9545876322477319
0.25833333333333336,0.9483236552061992
0.2611111111111111,0.9416664995458752
0.2638888888888889,0.9346189253489884
0.26666666666666666,0.9271838545667874
0.26944444444444443,0.9193643698080891
0.27222222222222225,0.9111637130612169
0.275,0.9025852843498605
0.2777777777777778,0.8936326403234123
0.28055555555555556,0.8843094927823669
0.2833333333333333,0.8746197071393959
0.28611111111111115,0.8645673008167305
0.2888888888888889,0.8541564415805254
0.2916666666666667,0.8433914458128856
0.29444444444444445,0.8322767767222777
0.2972222222222222,0.8208170424930671
0.3,0.8090169943749475
0.3027777777777778,0.7968815247130531
0.3055555555555556,0.7844156649195755
0.30833333333333335,0.7716245833877199
0.3111111111111111,0.7585135833488688
0.3138888888888889,0.7450881006738437
0.31666666666666665,0.7313537016191706
0.3194444444444445,0.7173160805192891
0.32222222222222224,0.7029810574256615
0.325,0.6883545756937539
0.3277777777777778,0.6734426995189001
0.33055555555555555,0.6582516114220638
0.33333333333333337,0.6427876096865391
0.33611111111111114,0.6270571057466613
0.3388888888888889,0.6110666215295996
0.3416666666666667,0.5948227867513413
0.34444444444444444,0.5783323361679863
0.3472222222222222,0.5616021067834929
0.35000000000000003,0.5446390350150269
0.3527777777777778,0.5274501538170993
0.35555555555555557,0.5100425897656751
0.35833333333333334,0.49242356010346716
0.3611111111111111,0.47460036974764025
0.36388888888888893,0.45658040826116525
0.3666666666666667,0.4383711467890773
0.36944444444444446,0.41998013496090925
0.37222222222222223,0.40141499776058914
0.375,0.38268343236508945
0.37777777777777777,0.3637932049531514
0.3805555555555556,0.34475214748539396
0.38333333333333336,0.3255681544571566
0.3861111111111111,0.30624917962540776
0.3888888888888889,0.2868032327110902
0.39166666666666666,0.2672383760782566
0.3944444444444445,0.2475627213913856
0.39722222222222225,0.22778442625225323
0.4,0.20791169081775887
0.4027777777777778,0.18795275440011164
0.40555555555555556,0.16791589205077706
0.4083333333333333,0.14780941112961038
0.41111111111111115,0.12764164786059415
0.4138888888888889,0.10742096387560701
0.4166666666666667,0.08715574274765775
0.41944444444444445,0.06685438651502697
0.4222222222222222,0.046525312197746686
0.425,0.02617694830787298
0.4277777777777778,0.0058177313549934466
0.4305555555555556,-0.014543897651582814
0.43333333333333335,-0.034899496702501344
0.4361111111111111,-0.055240626288448606
0.4388888888888889,-0.075558852899208
0.4416666666666667,-0.09584575252022455
0.4444444444444445,-0.11609291412523057
0.44722222222222224,-0.13629194316349458
0.45,-0.15643446504023117
0.4527777777777778,-0.1765121285887392
0.45555555555555555,-0.19651660953283043
0.45833333333333337,-0.21643961393810338
0.46111111111111114,-0.2362728816506416
0.4638888888888889,-0.25600818972170586
0.4666666666666667,-0.27563735581699944
0.46944444444444444,-0.2951522416090939
0.47222222222222227,-0.3145447561516139
0.47500000000000003,-0.33380685923377135
0.4777777777777778,-0.35293056471386913
0.48055555555555557,-0.37190794383038706
0.48333333333333334,-0.39073112848927394
0.4861111111111111,-0.40939231452609254
0.48888888888888893,-0.42788376494165486
0.4916666666666667,-0.44619781310980916
0.49444444444444446,-0.46432686595605716
0.49722222222222223,-0.48226340710566895
0.5,-0.5000000000000001
0.5027777777777778,-0.5175292909797198
0.5055555555555555,-0.5348440123336644
0.5083333333333333,-0.5519369853120581
0.5111111111111112,-0.5688011231028522
0.513888888888889,-0.5854294337699412
0.5166666666666667,-0.6018150231520487
0.5194444444444445,-0.6179510977210735
0.5222222222222223,-0.6338309673987107
0.525,-0.6494480483301839
0.5277777777777778,-0.6647958656139379
0.5305555555555556,-0.679868055986157
0.5333333333333333,-0.6946583704589973
0.5361111111111111,-0.7091606769114438
0.5388888888888889,-0.723368962631708
0.5416666666666667,-0.7372773368101245
0.5444444444444445,-0.7508800329814995
0.5472222222222223,-0.7641714114159132
0.55,-0.7771459614569711
0.5527777777777778,-0.7897983038065438
0.5555555555555556,-0.8021231927550437
0.5583333333333333,-0.8141155183563193
0.5611111111111111,-0.8257703085462543
0.5638888888888889,-0.8370827312042068
0.5666666666666667,-0.848048096156426
0.5694444444444444,-0.8586618571206132
0.5722222222222223,-0.8689196135908304
0.5750000000000001,-0.8788171126619656
0.5777777777777778,-0.8883502507930044
0.5805555555555556,-0.8975150755083727
0.5833333333333334,-0.9063077870366502
0.5861111111111111,-0.9147247398859674
0.5888888888888889,-0.9227624443554423
0.5916666666666667,-0.9304175679820246
0.5944444444444444,-0.937686936922145
0.5972222222222222,-0.9445675372676049
0.6,-0.9510565162951535
0.6027777777777777,-0.9571511836492388
0.6055555555555556,-0.9628490124574377
0.6083333333333334,-0.9681476403781079
0.6111111111111112,-0.973044870579824
0.6138888888888889,-0.9775386726521917
0.6166666666666667,-0.981627183447664
0.6194444444444445,-0.9853087078540095
0.6222222222222222,-0.9885817194971117
0.625,-0.9914448613738104
0.6277777777777778,-0.99389694641452
0.6305555555555555,-0.9959369579753928
0.6333333333333333,-0.9975640502598242
0.6361111111111112,-0.9987775486691226
0.638888888888889,-0.9995769500822006
0.6416666666666667,-0.9999619230641713
0.6444444444444445,-0.9999323080037622
0.6472222222222223,-0.9994881171794908
0.65,-0.9986295347545738
0.6527777777777778,-0.9973569167005722
0.6555555555555556,-0.9956707906498043
0.6583333333333333,-0.9935718556765876
0.6611111111111111,-0.9910609820073987
0.6638888888888889,-0.9881392106600759
0.6666666666666667,-0.984807753012208
0.6694444444444445,-0.9810679902988925
0.6722222222222223,-0.9769214730400708
0.675,-0.9723699203976766
0.6777777777777778,-0.9674152194628638
0.6805555555555556,-0.962059424473613
0.6833333333333333,-0.9563047559630354
0.6861111111111111,-0.9501535998387312
0.6888888888888889,-0.9436085063935834
0.6916666666666667,-0.9366721892483977
0.6944444444444444,-0.9293475242268224
0.6972222222222223,-0.9216375481630233
0.7000000000000001,-0.9135454576426008
0.7027777777777778,-0.9050746076772697
0.7055555555555556,-0.896228510313863
0.7083333333333334,-0.8870108331782216
0.7111111111111111,-0.8774253979545817
0.7138888888888889,-0.8674761788010922
0.7166666666666667,-0.8571673007021123
0.7194444444444444,-0.8465030377579761
0.7222222222222222,-0.8354878114129363
0.725,-0.8241261886220158
0.7277777777777779,-0.8124228799575287
0.7305555555555556,-0.8003827376560632
0.7333333333333334,-0.7880107536067218
0.7361111111111112,-0.7753120572814656
0.7388888888888889,-0.7622919136084175
0.7416666666666667,-0.7489557207890021
0.7444444444444445,-0.7353090080598285
0.7472222222222222,-0.7213574334002509
0.75,-0.707106781186547
0.7527777777777778,-0.6925629597936942
0.7555555555555555,-0.6777319991457321
0.7583333333333334,-0.6626200482157372
0.7611111111111112,-0.6472333724764319
0.763888888888889,-0.631578351302497
0.7666666666666667,-0.6156614753256582
0.7694444444444445,-0.5994893437436435
0.7722222222222223,-0.5830686615841342
0.775,-0.5664062369248322
0.7777777777777778,-0.5495089780708059
0.7805555555555556,-0.5323838906902782
0.7833333333333333,-0.5150380749100537
0.7861111111111111,-0.4974787223717765
0.788888888888889,-0.47971311325024535
0.7916666666666667,-0.46174861323503286
0.7944444444444445,-0.4435926704766354
0.7972222222222223,-0.42525281249844227
0.8,-0.4067366430757993
0.8027777777777778,-0.38805183908345264
0.8055555555555556,-0.369206147312684
0.8083333333333333,-0.3502073812594668
0.8111111111111111,-0.3310634178849581
0.8138888888888889,-0.31178219434967763
0.8166666666666667,-0.29237170472273627
0.8194444444444445,-0.2728399966674604
0.8222222222222223,-0.25319516810480086
0.8250000000000001,-0.23344536385590434
0.8277777777777778,-0.21359877226523963
0.8305555555555556,-0.1936636218056755
0.8333333333333334,-0.17364817766692953
0.8361111111111111,-0.15356073832878608
0.8388888888888889,-0.13340963212051232
0.8416666666666667,-0.11320321376790612
0.8444444444444444,-0.09294986092939228
0.8472222222222222,-0.07265797072261047
0.85,-0.05233595624294348
0.8527777777777779,-0.03199224307541211
0.8555555555555556,-0.01163526580139624
0.8583333333333334,0.008726535498374923
0.8611111111111112,0.02908471874311172
0.8638888888888889,0.04943084335208663
0.8666666666666667,0.06975647374412604
0.8694444444444445,0.09005318283503715
0.8722222222222222,0.110312555531512
0.875,0.13052619222005207
0.8777777777777778,0.15068571224948293
0.8805555555555555,0.17078275740560683
0.8833333333333334,0.19080899537654591
0.8861111111111112,0.21075612320734993
0.888888888888889,0.23061587074244083
0.8916666666666667,0.2503800040544423
0.8944444444444445,0.27004032885800094
0.8972222222222223,0.28958869390717135
0.9,0.309016994374948
0.9027777777777778,0.328317175213561
0.9055555555555556,0.34748123449413154
0.9083333333333333,0.36650122672429764
0.9111111111111111,0.3853692661424488
0.913888888888889,0.4040775299871925
0.9166666666666667,0.4226182617407004
0.9194444444444445,0.44098377434459013
0.9222222222222223,0.4591664533870121
0.925,0.47715876025960907
0.9277777777777778,0.49495323528305424
0.9305555555555556,0.5125425007998654
0.9333333333333333,0.5299192642332053
0.9361111111111111,0.5470763211104152
0.9388888888888889,0.5640065580500144
0.9416666666666667,0.58070295571094
0.9444444444444445,0.5971585917027865
0.9472222222222223,0.6133666434558597
0.9500000000000001,0.6293203910498382
0.9527777777777778,0.6450132199998793
0.9555555555555556,0.6604386239990081
0.9583333333333334,0.6755902076156607
0.9611111111111111,0.6904616889452503
0.9638888888888889,0.7050469022146706
0.9666666666666667,0.7193398003386514
0.9694444444444444,0.7333344574268992
0.9722222222222222,0.7470250712409959
0.9750000000000001,0.7604059656000316
0.9777777777777779,0.7734715927339648
0.9805555555555556,0.7862165355837546
0.9833333333333334,0.7986355100472933
0.9861111111111112,0.8107233671702129
0.9888888888888889,0.8224750952806624
0.9916666666666667,0.8338858220671684
0.9944444444444445,0.8449508165987105
0.9972222222222222,0.8556654912861852
1.0,0.8660254037844388
1.0027777777777778,0.8760262588340789
1.0055555555555555,0.8856639100423059
1.0083333333333333,0.8949343616020251
1.011111111111111,0.9038337699485206
1.0138888888888888,0.912358445353014
1.0166666666666666,0.9205048534524403
1.0194444444444444,0.9282696167148067
1.0222222222222224,0.9356495158395318
1.0250000000000001,0.9426414910921789
1.027777777777778,0.9492426435730345
1.0305555555555557,0.9554502364190024
1.0333333333333334,0.9612616959383191
1.0361111111111112,0.9666746126776143
1.038888888888889,0.9716867424208804
1.0416666666666667,0.9762960071199336
1.0444444444444445,0.9805004957559795
1.0472222222222223,0.9842984651319296
1.05,0.9876883405951378
1.0527777777777778,0.9906687166902561
1.0555555555555556,0.993238357741943
1.0583333333333333,0.9953961983671789
1.0611111111111111,0.9971413439169775
1.0638888888888889,0.9984730708473113
1.0666666666666667,0.9993908270190958
1.0694444444444444,0.9998942319271076
1.0722222222222222,0.9999830768577442
1.075,0.9996573249755573
1.0777777777777777,0.9989171113385246
1.0805555555555555,0.9977627428420542
1.0833333333333335,0.9961946980917454
1.0861111111111112,0.994213627204956
1.088888888888889,0.9918203515412616
1.0916666666666668,0.9890158633619167
1.0944444444444446,0.9858013254184596
1.0972222222222223,0.9821780704706304
1.1,0.9781476007338055
1.1027777777777779,0.9737115872561708
1.1055555555555556,0.9688718692259004
1.1083333333333334,0.9636304532086228
1.1111111111111112,0.9579895123154889
1.113888888888889,0.9519513853021928
1.1166666666666667,0.9455185755993167
1.1194444444444445,0.9386937502743955
1.1222222222222222,0.9314797389261421
1.125,0.9238795325112867
1.1277777777777778,0.9158962821045112
1.1305555555555555,0.9075332975920034
1.1333333333333333,0.898794046299167
1.136111111111111,0.8896821515530521
1.1388888888888888,0.880201391180111
1.1416666666666666,0.8703556959398998
1.1444444444444446,0.860149147895365
1.1472222222222224,0.8495859787204096
1.1500000000000001,0.8386705679454234
1.152777777777778,0.8274074411415102
1.1555555555555557,0.8158012680441712
1.1583333333333334,0.8038568606172168
1.1611111111111112,0.7915791710577033
1.163888888888889,0.7789732897427348
1.1666666666666667,0.7660444431189776
1.1694444444444445,0.7527979915357481
1.1722222222222223,0.7392394270225953
1.175,0.7253743710122874
1.1777777777777778,0.7112085720101374
1.1805555555555556,0.6967479032106544
1.1833333333333333,0.6819983600624984
1.1861111111111111,0.6669660577827352
1.1888888888888889,0.6516572288214548
1.1916666666666667,0.6360782202777641
1.1944444444444444,0.6202354912682593
1.1972222222222222,0.604135610249056
1.2,0.5877852522924734
1.2027777777777777,0.571191196319528
1.2055555555555555,0.5543603222893715
1.2083333333333335,0.5372996083468228
1.2111111111111112,0.520016127929215
1.213888888888889,0.5025170468337085
1.2166666666666668,0.4848096202463362
1.2194444444444446,0.46690118973396405
1.2222222222222223,0.44879918020046095
1.225,0.4305110968082945
1.2277777777777779,0.4120445218668667
1.2305555555555556,0.39340711168886405
1.2333333333333334,0.3746065934159116
1.2361111111111112,0.35565076181487504
1.238888888888889,0.33654747604612556
1.2416666666666667,0.317304656405092
1.2444444444444445,0.2979302810384808
1.2472222222222222,0.2784323826365112
1.25,0.2588190451025208
1.2527777777777778,0.23909840020135334
1.2555555555555555,0.21927862418790295
1.2583333333333333,0.1993679344171975
1.261111111111111,0.1793745859374566
1.2638888888888888,0.15930686806752248
1.2666666666666666,0.139173100960066
1.2694444444444446,0.1189816321520231
1.2722222222222224,0.09874083310368628
1.2750000000000001,0.07845909572784399
1.277777777777778,0.05814482891047376
1.2805555555555557,0.03780645502438951
1.2833333333333334,0.017452406437282793
1.2861111111111112,-0.0029088779843637544
1.288888888888889,-0.023268956374057466
1.2916666666666667,-0.04361938736533647
1.2944444444444445,-0.0639517335915872
1.2972222222222223,-0.08425756518420364
1.3,-0.10452846326765369
1.3027777777777778,-0.12475602344997193
1.3055555555555556,-0.1449318593072474
1.3083333333333333,-0.16504760586067763
1.3111111111111111,-0.18509492304471567
1.3138888888888889,-0.20506549916488787
1.3166666666666667,-0.22495105434386473
1.3194444444444444,-0.24474334395432457
1.3222222222222222,-0.2644341620372024
1.325,-0.2840153447039221
1.3277777777777777,-0.3034787735211712
1.3305555555555557,-0.3228163788768304
1.3333333333333335,-0.34202014332566966
1.3361111111111112,-0.3610821049134163
1.338888888888889,-0.3799943604778003
1.3416666666666668,-0.3987490689252469
1.3444444444444446,-0.4173384544818196
1.3472222222222223,-0.43575480991708043
1.35,-0.45399049973954725
1.3527777777777779,-0.4720379633623927
1.3555555555555556,-0.4898897182380878
1.3583333333333334,-0.5075383629607044
1.3611111111111112,-0.5249765803345613
1.363888888888889,-0.5421971404079575
1.3666666666666667,-0.5591929034707468
1.3694444444444445,-0.5759568230144841
1.3722222222222222,-0.5924819486539311
1.375,-0.6087614290087204
1.3777777777777778,-0.6247885145439609
1.3805555555555555,-0.6405565603686153
1.3833333333333333,-0.6560590289905069
1.386111111111111,-0.671289493026784
1.3888888888888888,-0.6862416378687335
1.3916666666666668,-0.7009092642998517
1.3944444444444446,-0.715286291066053
1.3972222222222224,-0.7293667573969863
1.4000000000000001,-0.7431448254773948
1.402777777777778,-0.7566147828674941
1.4055555555555557,-0.7697710448713685
1.4083333333333334,-0.7826081568524142
1.4111111111111112,-0.7951207964948488
1.413888888888889,-0.8073037760103604
1.4166666666666667,-0.8191520442889919
1.4194444444444445,-0.8306606889933463
1.4222222222222223,-0.8418249385952579
1.425,-0.8526401643540923
1.4277777777777778,-0.863101882235837
1.4305555555555556,-0.873205754772196
1.4333333333333333,-0.8829475928589269
1.4361111111111111,-0.8923233574926558
1.4388888888888889,-0.9013291614454623
1.4416666666666667,-0.909961270876543
1.4444444444444444,-0.9182161068802742
1.4472222222222222,-0.9260902469700378
1.45,-0.9335804264972015
1.4527777777777777,-0.9406835400046523
1.4555555555555557,-0.9473966425143298
1.4583333333333335,-0.9537169507482272
1.4611111111111112,-0.9596418442823498
1.463888888888889,-0.9651688666331497
1.4666666666666668,-0.9702957262759966
1.4694444444444446,-0.975020297595251
1.4722222222222223,-0.9793406217655517
1.475,-0.9832549075639546
1.4777777777777779,-0.9867615321125794
