Time,Signal
0.0,0.0
0.002777777777777778,0.020360767547893555
0.005555555555555556,0.04071309344359583
0.008333333333333333,0.06104853953485687
0.011111111111111112,0.08135867466785829
0.01388888888888889,0.10163507818280189
0.016666666666666666,0.12186934340514748
0.019444444444444445,0.14205308113105242
0.022222222222222223,0.16217792310556745
0.025,0.1822355254921475
0.02777777777777778,0.20221757233203796
0.030555555555555558,0.22211577899210336
0.03333333333333333,0.24192189559966773
0.036111111111111115,0.2616277104629436
0.03888888888888889,0.28122505347563065
0.04166666666666667,0.3007057995042732
0.044444444444444446,0.3200618717569716
0.04722222222222222,0.33928524513205127
0.05,0.3583679495453003
0.05277777777777778,0.37730207323439696
0.05555555555555556,0.39607976603915684
0.058333333333333334,0.4146932426562391
0.061111111111111116,0.4331347858669631
0.0638888888888889,0.45139674973689686
0.06666666666666667,0.4694715627858908
0.06944444444444445,0.48735173112724234
0.07222222222222223,0.5050298415746901
0.075,0.5224985647159488
0.07777777777777778,0.5397506579515129
0.08055555555555556,0.5567789684974646
0.08333333333333334,0.5735764363510462
0.08611111111111111,0.5901360972177645
0.08888888888888889,0.6064510853988134
0.09166666666666667,0.6225146366376196
0.09444444444444444,0.6383200909243283
0.09722222222222222,0.6538608952570697
0.1,0.6691306063588583
0.10277777777777779,0.684122893349
0.10555555555555556,0.6988315403679
0.10833333333333334,0.7132504491541817
0.11111111111111112,0.7273736415730487
0.11388888888888889,0.7411952620948437
0.11666666666666667,0.754709580222772
0.11944444444444445,0.7679109928687886
0.12222222222222223,0.7807940266766593
0.125,0.7933533402912352
0.1277777777777778,0.8055837265729995
0.13055555555555556,0.8174801147569666
0.13333333333333333,0.8290375725550417
0.13611111111111113,0.8402513082009657
0.1388888888888889,0.8511166724369997
0.14166666666666666,0.8616291604415257
0.14444444444444446,0.8717844136967625
0.14722222222222223,0.8815782217958232
0.15,0.8910065241883678
0.1527777777777778,0.9000654118641213
0.15555555555555556,0.9087511289735644
0.15833333333333333,0.917060074385124
0.16111111111111112,0.9249888031782162
0.1638888888888889,0.932534028071522
0.16666666666666669,0.9396926207859084
0.16944444444444445,0.9464616133414243
0.17222222222222222,0.9528381992878361
0.17500000000000002,0.958819734868193
0.17777777777777778,0.964403740114939
0.18055555555555555,0.969587899878116
0.18333333333333335,0.9743700647852352
0.18611111111111112,0.978748252132414
0.18888888888888888,0.9827206467064133
0.19166666666666668,0.9862856015372314
0.19444444444444445,0.9894416385809445
0.19722222222222224,0.9921874493325091
0.2,0.9945218953682734
0.20277777777777778,0.9964440088179716
0.20555555555555557,0.9979529927660075
0.20833333333333334,0.9990482215818578
0.2111111111111111,0.9997292411794617
0.2138888888888889,0.9999957692054863
0.21666666666666667,0.9998476951563913
0.21944444444444444,0.9992850804242445
0.22222222222222224,0.9983081582712682
0.225,0.996917333733128
0.22777777777777777,0.9951131834510031
0.23055555555555557,0.9928964554325089
0.23333333333333334,0.9902680687415703
0.23611111111111113,0.987229113117374
0.2388888888888889,0.9837808485225588
0.24166666666666667,0.9799247046208296
0.24444444444444446,0.9756622801842142
0.24722222222222223,0.970995342430206
0.25,0.9659258262890683
0.25277777777777777,0.9604558336016056
0.2555555555555556,0.9545876322477319
0.25833333333333336,0.9483236552061992
0.2611111111111111,0.9416664995458752
0.2638888888888889,0.9346189253489884
0.26666666666666666,0.9271838545667874
0.26944444444444443,0.9193643698080891
0.27222222222222225,0.9111637130612169
0.275,0.9025852843498605
0.2777777777777778,0.8936326403234123
0.28055555555555556,0.8843094927823669
0.2833333333333333,0.8746197071393959
0.28611111111111115,0.8645673008167305
0.2888888888888889,0.8541564415805254
0.2916666666666667,0.8433914458128856
0.29444444444444445,0.8322767767222777
0.2972222222222222,0.8208170424930671
0.3,0.8090169943749475
0.3027777777777778,0.7968815247130531
0.3055555555555556,0.7844156649195755
0.30833333333333335,0.7716245833877199
0.3111111111111111,0.7585135833488688
0.3138888888888889,0.7450881006738437
0.31666666666666665,0.7313537016191706
0.3194444444444445,0.7173160805192891
0.32222222222222224,0.7029810574256615
0.325,0.6883545756937539
0.3277777777777778,0.6734426995189001
0.33055555555555555,0.6582516114220638
0.33333333333333337,0.6427876096865391
0.33611111111111114,0.6270571057466613
0.3388888888888889,0.6110666215295996
0.3416666666666667,0.5948227867513413
0.34444444444444444,0.5783323361679863
0.3472222222222222,0.5616021067834929
0.35000000000000003,0.5446390350150269
0.3527777777777778,0.5274501538170993
0.35555555555555557,0.5100425897656751
0.35833333333333334,0.49242356010346716
0.3611111111111111,0.47460036974764025
0.36388888888888893,0.45658040826116525
0.3666666666666667,0.4383711467890773
0.36944444444444446,0.41998013496090925
0.37222222222222223,0.40141499776058914
0.375,0.38268343236508945
0.37777777777777777,0.3637932049531514
0.3805555555555556,0.34475214748539396
0.38333333333333336,0.3255681544571566
0.3861111111111111,0.30624917962540776
0.3888888888888889,0.2868032327110902
0.39166666666666666,0.2672383760782566
0.3944444444444445,0.2475627213913856
0.39722222222222225,0.22778442625225323
0.4,0.20791169081775887
0.4027777777777778,0.18795275440011164
0.40555555555555556,0.16791589205077706
0.4083333333333333,0.14780941112961038
0.41111111111111115,0.12764164786059415
0.4138888888888889,0.10742096387560701
0.4166666666666667,0.08715574274765775
0.41944444444444445,0.06685438651502697
0.4222222222222222,0.046525312197746686
0.425,0.02617694830787298
0.4277777777777778,0.0058177313549934466
0.4305555555555556,-0.014543897651582814
0.43333333333333335,-0.034899496702501344
0.4361111111111111,-0.055240626288448606
0.4388888888888889,-0.075558852899208
0.4416666666666667,-0.09584575252022455
0.4444444444444445,-0.11609291412523057
0.44722222222222224,-0.13629194316349458
0.45,-0.15643446504023117
0.4527777777777778,-0.1765121285887392
0.45555555555555555,-0.19651660953283043
0.45833333333333337,-0.21643961393810338
0.46111111111111114,-0.2362728816506416
0.4638888888888889,-0.25600818972170586
0.4666666666666667,-0.27563735581699944
0.46944444444444444,-0.2951522416090939
0.47222222222222227,-0.3145447561516139
0.47500000000000003,-0.33380685923377135
0.4777777777777778,-0.35293056471386913
0.48055555555555557,-0.37190794383038706
0.48333333333333334,-0.39073112848927394
0.4861111111111111,-0.40939231452609254
0.48888888888888893,-0.42788376494165486
0.4916666666666667,-0.44619781310980916
0.49444444444444446,-0.46432686595605716
0.49722222222222223,-0.48226340710566895
0.5,-0.5000000000000001
0.5027777777777778,-0.5175292909797198
0.5055555555555555,-0.5348440123336644
0.5083333333333333,-0.5519369853120581
0.5111111111111112,-0.5688011231028522
0.513888888888889,-0.5854294337699412
0.5166666666666667,-0.6018150231520487
0.5194444444444445,-0.6179510977210735
0.5222222222222223,-0.6338309673987107
0.525,-0.6494480483301839
0.5277777777777778,-0.6647958656139379
0.5305555555555556,-0.679868055986157
0.5333333333333333,-0.6946583704589973
0.5361111111111111,-0.7091606769114438
0.5388888888888889,-0.723368962631708
0.5416666666666667,-0.7372773368101245
0.5444444444444445,-0.7508800329814995
0.5472222222222223,-0.7641714114159132
0.55,-0.7771459614569711
0.5527777777777778,-0.7897983038065438
0.5555555555555556,-0.8021231927550437
0.5583333333333333,-0.8141155183563193
0.5611111111111111,-0.8257703085462543
0.5638888888888889,-0.8370827312042068
0.5666666666666667,-0.848048096156426
0.5694444444444444,-0.8586618571206132
0.5722222222222223,-0.8689196135908304
0.5750000000000001,-0.8788171126619656
0.5777777777777778,-0.8883502507930044
0.5805555555555556,-0.8975150755083727
0.5833333333333334,-0.9063077870366502
0.5861111111111111,-0.9147247398859674
0.5888888888888889,-0.9227624443554423
0.5916666666666667,-0.9304175679820246
0.5944444444444444,-0.937686936922145
0.5972222222222222,-0.9445675372676049
0.6,-0.9510565162951535
0.6027777777777777,-0.9571511836492388
0.6055555555555556,-0.9628490124574377
0.6083333333333334,-0.9681476403781079
0.6111111111111112,-0.973044870579824
0.6138888888888889,-0.9775386726521917
0.6166666666666667,-0.981627183447664
0.6194444444444445,-0.9853087078540095
0.6222222222222222,-0.9885817194971117
0.625,-0.9914448613738104
0.6277777777777778,-0.99389694641452
0.6305555555555555,-0.9959369579753928
0.6333333333333333,-0.9975640502598242
0.6361111111111112,-0.9987775486691226
0.638888888888889,-0.9995769500822006
0.6416666666666667,-0.9999619230641713
0.6444444444444445,-0.9999323080037622
0.6472222222222223,-0.9994881171794908
0.65,-0.9986295347545738
0.6527777777777778,-0.9973569167005722
0.6555555555555556,-0.9956707906498043
0.6583333333333333,-0.9935718556765876
0.6611111111111111,-0.9910609820073987
0.6638888888888889,-0.9881392106600759
0.6666666666666667,-0.984807753012208
0.6694444444444445,-0.9810679902988925
0.6722222222222223,-0.9769214730400708
0.675,-0.9723699203976766
0.6777777777777778,-0.9674152194628638
0.6805555555555556,-0.962059424473613
0.6833333333333333,-0.9563047559630354
0.6861111111111111,-0.9501535998387312
0.6888888888888889,-0.9436085063935834
0.6916666666666667,-0.9366721892483977
0.6944444444444444,-0.9293475242268224
0.6972222222222223,-0.9216375481630233
0.7000000000000001,-0.9135454576426008
0.7027777777777778,-0.9050746076772697
0.7055555555555556,-0.896228510313863
0.7083333333333334,-0.8870108331782216
0.7111111111111111,-0.8774253979545817
0.7138888888888889,-0.8674761788010922
0.7166666666666667,-0.8571673007021123
0.7194444444444444,-0.8465030377579761
0.7222222222222222,-0.8354878114129363
0.725,-0.8241261886220158
0.7277777777777779,-0.8124228799575287
0.7305555555555556,-0.8003827376560632
0.7333333333333334,-0.7880107536067218
0.7361111111111112,-0.7753120572814656
0.7388888888888889,-0.7622919136084175
0.7416666666666667,-0.7489557207890021
0.7444444444444445,-0.7353090080598285
0.7472222222222222,-0.7213574334002509
0.75,-0.707106781186547
0.7527777777777778,-0.6925629597936942
0.7555555555555555,-0.6777319991457321
0.7583333333333334,-0.6626200482157372
0.7611111111111112,-0.6472333724764319
0.763888888888889,-0.631578351302497
0.7666666666666667,-0.6156614753256582
0.7694444444444445,-0.5994893437436435
0.7722222222222223,-0.5830686615841342
0.775,-0.5664062369248322
0.7777777777777778,-0.5495089780708059
0.7805555555555556,-0.5323838906902782
0.7833333333333333,-0.5150380749100537
0.7861111111111111,-0.4974787223717765
0.788888888888889,-0.47971311325024535
0.7916666666666667,-0.46174861323503286
0.7944444444444445,-0.4435926704766354
0.7972222222222223,-0.42525281249844227
0.8,-0.4067366430757993
0.8027777777777778,-0.38805183908345264
0.8055555555555556,-0.369206147312684
0.8083333333333333,-0.3502073812594668
0.8111111111111111,-0.3310634178849581
0.8138888888888889,-0.31178219434967763
0.8166666666666667,-0.29237170472273627
0.8194444444444445,-0.2728399966674604
0.8222222222222223,-0.25319516810480086
0.8250000000000001,-0.23344536385590434
0.8277777777777778,-0.21359877226523963
0.8305555555555556,-0.1936636218056755
0.8333333333333334,-0.17364817766692953
0.8361111111111111,-0.15356073832878608
0.8388888888888889,-0.13340963212051232
0.8416666666666667,-0.11320321376790612
0.8444444444444444,-0.09294986092939228
0.8472222222222222,-0.07265797072261047
0.85,-0.05233595624294348
0.8527777777777779,-0.03199224307541211
0.8555555555555556,-0.01163526580139624
0.8583333333333334,0.008726535498374923
0.8611111111111112,0.02908471874311172
0.8638888888888889,0.04943084335208663
0.8666666666666667,0.06975647374412604
0.8694444444444445,0.09005318283503715
0.8722222222222222,0.110312555531512
0.875,0.13052619222005207
0.8777777777777778,0.15068571224948293
0.8805555555555555,0.17078275740560683
0.8833333333333334,0.19080899537654591
0.8861111111111112,0.21075612320734993
0.888888888888889,0.23061587074244083
0.8916666666666667,0.2503800040544423
0.8944444444444445,0.27004032885800094
0.8972222222222223,0.28958869390717135
0.9,0.309016994374948
0.9027777777777778,0.328317175213561
0.9055555555555556,0.34748123449413154
0.9083333333333333,0.36650122672429764
0.9111111111111111,0.3853692661424488
0.913888888888889,0.4040775299871925
0.9166666666666667,0.4226182617407004
0.9194444444444445,0.44098377434459013
0.9222222222222223,0.4591664533870121
0.925,0.47715876025960907
0.9277777777777778,0.49495323528305424
0.9305555555555556,0.5125425007998654
0.9333333333333333,0.5299192642332053
0.9361111111111111,0.5470763211104152
0.9388888888888889,0.5640065580500144
0.9416666666666667,0.58070295571094
0.9444444444444445,0.5971585917027865
0.9472222222222223,0.6133666434558597
0.9500000000000001,0.6293203910498382
0.9527777777777778,0.6450132199998793
0.9555555555555556,0.6604386239990081
0.9583333333333334,0.6755902076156607
0.9611111111111111,0.6904616889452503
0.9638888888888889,0.7050469022146706
0.9666666666666667,0.7193398003386514
0.9694444444444444,0.7333344574268992
0.9722222222222222,0.7470250712409959
0.9750000000000001,0.7604059656000316
0.9777777777777779,0.7734715927339648
0.9805555555555556,0.7862165355837546
0.9833333333333334,0.7986355100472933
0.9861111111111112,0.8107233671702129
0.9888888888888889,0.8224750952806624
0.9916666666666667,0.8338858220671684
0.9944444444444445,0.8449508165987105
0.9972222222222222,0.8556654912861852
1.0,0.8660254037844388
1.0027777777777778,0.8760262588340789
1.0055555555555555,0.8856639100423059
1.0083333333333333,0.8949343616020251
1.011111111111111,0.9038337699485206
1.0138888888888888,0.912358445353014
1.0166666666666666,0.9205048534524403
1.0194444444444444,0.9282696167148067
1.0222222222222224,0.9356495158395318
1.0250000000000001,0.9426414910921789
1.027777777777778,0.9492426435730345
1.0305555555555557,0.9554502364190024
1.0333333333333334,0.9612616959383191
1.0361111111111112,0.9666746126776143
1.038888888888889,0.9716867424208804
1.0416666666666667,0.9762960071199336
1.0444444444444445,0.9805004957559795
1.0472222222222223,0.9842984651319296
1.05,0.9876883405951378
1.0527777777777778,0.9906687166902561
1.0555555555555556,0.993238357741943
1.0583333333333333,0.9953961983671789
1.0611111111111111,0.9971413439169775
1.0638888888888889,0.9984730708473113
1.0666666666666667,0.9993908270190958
1.0694444444444444,0.9998942319271076
1.0722222222222222,0.9999830768577442
1.075,0.9996573249755573
1.0777777777777777,0.9989171113385246
1.0805555555555555,0.9977627428420542
1.0833333333333335,0.9961946980917454
1.0861111111111112,0.994213627204956
1.088888888888889,0.9918203515412616
1.0916666666666668,0.9890158633619167
1.0944444444444446,0.9858013254184596
1.0972222222222223,0.9821780704706304
1.1,0.9781476007338055
1.1027777777777779,0.9737115872561708
1.1055555555555556,0.9688718692259004
1.1083333333333334,0.9636304532086228
1.1111111111111112,0.9579895123154889
1.113888888888889,0.9519513853021928
1.1166666666666667,0.9455185755993167
1.1194444444444445,0.9386937502743955
1.1222222222222222,0.9314797389261421
1.125,0.9238795325112867
1.1277777777777778,0.9158962821045112
1.1305555555555555,0.9075332975920034
1.1333333333333333,0.898794046299167
1.136111111111111,0.8896821515530521
1.1388888888888888,0.880201391180111
1.1416666666666666,0.8703556959398998
1.1444444444444446,0.860149147895365
1.1472222222222224,0.8495859787204096
1.1500000000000001,0.8386705679454234
1.152777777777778,0.8274074411415102
1.1555555555555557,0.8158012680441712
1.1583333333333334,0.8038568606172168
1.1611111111111112,0.7915791710577033
1.163888888888889,0.7789732897427348
1.1666666666666667,0.7660444431189776
1.1694444444444445,0.7527979915357481
1.1722222222222223,0.7392394270225953
1.175,0.7253743710122874
1.1777777777777778,0.7112085720101374
1.1805555555555556,0.6967479032106544
1.1833333333333333,0.6819983600624984
1.1861111111111111,0.6669660577827352
1.1888888888888889,0.6516572288214548
1.1916666666666667,0.6360782202777641
1.1944444444444444,0.6202354912682593
1.1972222222222222,0.604135610249056
1.2,0.5877852522924734
1.2027777777777777,0.571191196319528
1.2055555555555555,0.5543603222893715
1.2083333333333335,0.5372996083468228
1.2111111111111112,0.520016127929215
1.213888888888889,0.5025170468337085
1.2166666666666668,0.4848096202463362
1.2194444444444446,0.46690118973396405
1.2222222222222223,0.44879918020046095
1.225,0.4305110968082945
1.2277777777777779,0.4120445218668667
1.2305555555555556,0.39340711168886405
1.2333333333333334,0.3746065934159116
1.2361111111111112,0.35565076181487504
1.238888888888889,0.33654747604612556
1.2416666666666667,0.317304656405092
1.2444444444444445,0.2979302810384808
1.2472222222222222,0.2784323826365112
1.25,0.2588190451025208
1.2527777777777778,0.23909840020135334
1.2555555555555555,0.21927862418790295
1.2583333333333333,0.1993679344171975
1.261111111111111,0.1793745859374566
1.2638888888888888,0.15930686806752248
1.2666666666666666,0.139173100960066
1.2694444444444446,0.1189816321520231
1.2722222222222224,0.09874083310368628
1.2750000000000001,0.07845909572784399
1.277777777777778,0.05814482891047376
1.2805555555555557,0.03780645502438951
1.2833333333333334,0.017452406437282793
1.2861111111111112,-0.0029088779843637544
1.288888888888889,-0.023268956374057466
1.2916666666666667,-0.04361938736533647
1.2944444444444445,-0.0639517335915872
1.2972222222222223,-0.08425756518420364
1.3,-0.10452846326765369
1.3027777777777778,-0.12475602344997193
1.3055555555555556,-0.1449318593072474
1.3083333333333333,-0.16504760586067763
1.3111111111111111,-0.18509492304471567
1.3138888888888889,-0.20506549916488787
1.3166666666666667,-0.22495105434386473
1.3194444444444444,-0.24474334395432457
1.3222222222222222,-0.2644341620372024
1.325,-0.2840153447039221
1.3277777777777777,-0.3034787735211712
1.3305555555555557,-0.3228163788768304
1.3333333333333335,-0.34202014332566966
1.3361111111111112,-0.3610821049134163
1.338888888888889,-0.3799943604778003
1.3416666666666668,-0.3987490689252469
1.3444444444444446,-0.4173384544818196
1.3472222222222223,-0.43575480991708043
1.35,-0.45399049973954725
1.3527777777777779,-0.4720379633623927
1.3555555555555556,-0.4898897182380878
1.3583333333333334,-0.5075383629607044
1.3611111111111112,-0.5249765803345613
1.363888888888889,-0.5421971404079575
1.3666666666666667,-0.5591929034707468
1.3694444444444445,-0.5759568230144841
1.3722222222222222,-0.5924819486539311
1.375,-0.6087614290087204
1.3777777777777778,-0.6247885145439609
1.3805555555555555,-0.6405565603686153
1.3833333333333333,-0.6560590289905069
1.386111111111111,-0.671289493026784
1.3888888888888888,-0.6862416378687335
1.3916666666666668,-0.7009092642998517
1.3944444444444446,-0.715286291066053
1.3972222222222224,-0.7293667573969863
1.4000000000000001,-0.7431448254773948
1.402777777777778,-0.7566147828674941
1.4055555555555557,-0.7697710448713685
1.4083333333333334,-0.7826081568524142
1.4111111111111112,-0.7951207964948488
1.413888888888889,-0.8073037760103604
1.4166666666666667,-0.8191520442889919
1.4194444444444445,-0.8306606889933463
1.4222222222222223,-0.8418249385952579
1.425,-0.8526401643540923
1.4277777777777778,-0.863101882235837
1.4305555555555556,-0.873205754772196
1.4333333333333333,-0.8829475928589269
1.4361111111111111,-0.8923233574926558
1.4388888888888889,-0.9013291614454623
1.4416666666666667,-0.909961270876543
1.4444444444444444,-0.9182161068802742
1.4472222222222222,-0.9260902469700378
1.45,-0.9335804264972015
1.4527777777777777,-0.9406835400046523
1.4555555555555557,-0.9473966425143298
1.4583333333333335,-0.9537169507482272
1.4611111111111112,-0.9596418442823498
1.463888888888889,-0.9651688666331497
1.4666666666666668,-0.9702957262759966
1.4694444444444446,-0.975020297595251
1.4722222222222223,-0.9793406217655517
1.475,-0.9832549075639546
1.4777777777777779,-0.9867615321125794
1.4805555555555556,-0.9898590415514599
1.4833333333333334,-0.9925461516413221
1.4861111111111112,-0.9948217482960332
1.488888888888889,-0.9966848880445061
1.4916666666666667,-0.9981347984218669
1.4944444444444445,-0.9991708782897213
1.4972222222222222,-0.9997926980853884
1.5,-1.0
1.5027777777777778,-0.9997926980853884
1.5055555555555555,-0.9991708782897213
1.5083333333333333,-0.9981347984218669
1.511111111111111,-0.9966848880445061
1.5138888888888888,-0.9948217482960331
1.5166666666666668,-0.992546151641322
1.5194444444444446,-0.9898590415514595
1.5222222222222224,-0.986761532112579
1.5250000000000001,-0.9832549075639545
1.527777777777778,-0.9793406217655511
1.5305555555555557,-0.9750202975952504
1.5333333333333334,-0.9702957262759964
1.5361111111111112,-0.965168866633149
1.538888888888889,-0.9596418442823491
1.5416666666666667,-0.9537169507482264
1.5444444444444445,-0.9473966425143289
1.5472222222222223,-0.9406835400046519
1.55,-0.9335804264972012
1.5527777777777778,-0.9260902469700375
1.5555555555555556,-0.9182161068802739
1.5583333333333333,-0.9099612708765427
1.5611111111111111,-0.9013291614454619
1.5638888888888889,-0.8923233574926555
1.5666666666666667,-0.8829475928589264
1.5694444444444444,-0.8732057547721955
1.5722222222222222,-0.8631018822358364
1.575,-0.8526401643540917
1.577777777777778,-0.8418249385952564
1.5805555555555557,-0.8306606889933448
1.5833333333333335,-0.8191520442889905
1.5861111111111112,-0.8073037760103589
1.588888888888889,-0.7951207964948471
1.5916666666666668,-0.7826081568524126
1.5944444444444446,-0.7697710448713668
1.5972222222222223,-0.7566147828674923
1.6,-0.743144825477393
1.6027777777777779,-0.7293667573969844
1.6055555555555556,-0.7152862910660511
1.6083333333333334,-0.7009092642998497
1.6111111111111112,-0.6862416378687328
1.613888888888889,-0.6712894930267833
1.6166666666666667,-0.6560590289905062
1.6194444444444445,-0.6405565603686146
1.6222222222222222,-0.6247885145439601
1.625,-0.6087614290087198
1.6277777777777778,-0.5924819486539303
1.6305555555555555,-0.5759568230144835
1.6333333333333333,-0.559192903470746
1.636111111111111,-0.5421971404079567
1.638888888888889,-0.5249765803345591
1.6416666666666668,-0.5075383629607021
1.6444444444444446,-0.48988971823808547
1.6472222222222224,-0.4720379633623903
1.6500000000000001,-0.45399049973954486
1.652777777777778,-0.435754809917078
1.6555555555555557,-0.4173384544818171
1.6583333333333334,-0.3987490689252444
1.6611111111111112,-0.3799943604777978
1.663888888888889,-0.3610821049134138
1.6666666666666667,-0.34202014332566716
1.6694444444444445,-0.32281637887682785
1.6722222222222223,-0.3034787735211703
1.675,-0.28401534470392126
1.6777777777777778,-0.2644341620372015
1.6805555555555556,-0.24474334395432368
1.6833333333333333,-0.22495105434386384
1.6861111111111111,-0.20506549916488695
1.6888888888888889,-0.18509492304471475
1.6916666666666667,-0.1650476058606767
1.6944444444444444,-0.14493185930724647
1.6972222222222222,-0.12475602344997101
1.7,-0.10452846326765278
1.702777777777778,-0.08425756518420095
1.7055555555555557,-0.06395173359158451
1.7083333333333335,-0.04361938736533378
1.7111111111111112,-0.023268956374054774
1.713888888888889,-0.002908877984361059
1.7166666666666668,0.01745240643728549
1.7194444444444446,0.037806455024392206
1.7222222222222223,0.058144828910476454
1.725,0.07845909572784666
1.7277777777777779,0.09874083310368896
1.7305555555555556,0.11898163215202577
1.7333333333333334,0.1391731009600669
1.7361111111111112,0.15930686806752337
1.738888888888889,0.1793745859374575
1.7416666666666667,0.19936793441719838
1.7444444444444445,0.21927862418790384
1.7472222222222222,0.23909840020135423
1.75,0.2588190451025217
1.7527777777777778,0.2784323826365121
1.7555555555555555,0.2979302810384817
1.7583333333333333,0.3173046564050928
1.761111111111111,0.33654747604612645
1.763888888888889,0.3556507618148776
1.7666666666666668,0.3746065934159141
1.7694444444444446,0.39340711168886655
1.7722222222222224,0.4120445218668692
1.7750000000000001,0.43051109680829697
1.777777777777778,0.4487991802004634
1.7805555555555557,0.46690118973396644
1.7833333333333334,0.48480962024633856
1.7861111111111112,0.5025170468337108
1.788888888888889,0.5200161279292158
1.7916666666666667,0.5372996083468251
1.7944444444444445,0.5543603222893723
1.7972222222222223,0.5711911963195287
1.8,0.5877852522924741
1.8027777777777778,0.6041356102490567
1.8055555555555556,0.6202354912682599
1.8083333333333333,0.6360782202777647
1.8111111111111111,0.6516572288214555
1.8138888888888889,0.6669660577827359
1.8166666666666667,0.681998360062499
1.8194444444444444,0.696747903210655
1.8222222222222222,0.711208572010138
1.8250000000000002,0.7253743710122892
1.827777777777778,0.7392394270225972
1.8305555555555557,0.7527979915357488
1.8333333333333335,0.7660444431189793
1.8361111111111112,0.7789732897427365
1.838888888888889,0.7915791710577038
1.8416666666666668,0.8038568606172184
1.8444444444444446,0.8158012680441727
1.8472222222222223,0.8274074411415108
1.85,0.8386705679454248
1.8527777777777779,0.8495859787204111
1.8555555555555556,0.8601491478953655
1.8583333333333334,0.8703556959399004
1.8611111111111112,0.8802013911801114
1.863888888888889,0.8896821515530525
1.8666666666666667,0.8987940462991675
1.8694444444444445,0.9075332975920037
1.8722222222222222,0.9158962821045117
1.875,0.9238795325112871
1.8777777777777778,0.9314797389261424
1.8805555555555555,0.9386937502743958
1.8833333333333333,0.945518575599317
1.8861111111111113,0.9519513853021936
1.888888888888889,0.9579895123154891
1.8916666666666668,0.9636304532086235
1.8944444444444446,0.9688718692259011
1.8972222222222224,0.9737115872561715
1.9000000000000001,0.978147600733806
1.902777777777778,0.9821780704706309
1.9055555555555557,0.98580132541846
1.9083333333333334,0.989015863361917
1.9111111111111112,0.9918203515412618
1.913888888888889,0.9942136272049563
1.9166666666666667,0.9961946980917457
1.9194444444444445,0.9977627428420544
1.9222222222222223,0.9989171113385246
1.925,0.9996573249755573
1.9277777777777778,0.9999830768577442
1.9305555555555556,0.9998942319271075
1.9333333333333333,0.9993908270190957
1.9361111111111111,0.9984730708473113
1.9388888888888889,0.9971413439169773
1.9416666666666667,0.9953961983671787
1.9444444444444444,0.993238357741943
1.9472222222222222,0.9906687166902559
1.9500000000000002,0.9876883405951374
1.952777777777778,0.9842984651319293
1.9555555555555557,0.9805004957559788
1.9583333333333335,0.9762960071199329
1.9611111111111112,0.9716867424208799
1.963888888888889,0.9666746126776135
1.9666666666666668,0.9612616959383185
1.9694444444444446,0.9554502364190018
1.9722222222222223,0.9492426435730332
1.975,0.942641491092178
1.9777777777777779,0.9356495158395312
1.9805555555555556,0.9282696167148059
1.9833333333333334,0.9205048534524399
1.9861111111111112,0.912358445353014
1.988888888888889,0.9038337699485198
1.9916666666666667,0.8949343616020247
1.9944444444444445,0.8856639100423059
1.9972222222222222,0.876026258834078
2.0,0.8660254037844384
2.0027777777777778,0.8556654912861851
2.0055555555555555,0.8449508165987096
2.0083333333333333,0.833885822067168
2.011111111111111,0.8224750952806624
2.013888888888889,0.8107233671702119
2.0166666666666666,0.7986355100472928
2.0194444444444444,0.7862165355837546
2.022222222222222,0.7734715927339637
2.025,0.760405965600031
2.0277777777777777,0.7470250712409965
2.0305555555555554,0.7333344574268986
2.033333333333333,0.7193398003386514
2.036111111111111,0.7050469022146713
2.0388888888888888,0.6904616889452496
2.041666666666667,0.6755902076156581
2.0444444444444447,0.660438623999006
2.0472222222222225,0.6450132199998758
2.0500000000000003,0.6293203910498354
2.052777777777778,0.6133666434558576
2.055555555555556,0.5971585917027837
2.0583333333333336,0.5807029557109378
2.0611111111111113,0.564006558050013
2.063888888888889,0.5470763211104122
2.066666666666667,0.5299192642332031
2.0694444444444446,0.5125425007998639
2.0722222222222224,0.4949532352830519
2.075,0.47715876025960674
2.077777777777778,0.45916645338701056
2.0805555555555557,0.4409837743445877
2.0833333333333335,0.42261826174069794
2.0861111111111112,0.4040775299871908
2.088888888888889,0.3853692661424464
2.091666666666667,0.36650122672429597
2.0944444444444446,0.3474812344941307
2.0972222222222223,0.3283171752135593
2.1,0.3090169943749463
2.102777777777778,0.28958869390717046
2.1055555555555556,0.2700403288579992
2.1083333333333334,0.2503800040544405
2.111111111111111,0.23061587074243994
2.113888888888889,0.21075612320734816
2.1166666666666667,0.19080899537654414
2.1194444444444445,0.17078275740560678
2.1222222222222222,0.15068571224948202
2.125,0.13052619222005116
2.1277777777777778,0.11031255553151195
2.1305555555555555,0.09005318283503623
2.1333333333333333,0.06975647374412512
2.136111111111111,0.0494308433520866
2.138888888888889,0.0290847187431108
2.1416666666666666,0.008726535498374004
2.1444444444444444,-0.011635265801398046
2.147222222222222,-0.031992243075413034
2.15,-0.052335956242943515
2.1527777777777777,-0.07265797072261139
2.1555555555555554,-0.09294986092939232
2.158333333333333,-0.11320321376790615
2.161111111111111,-0.1334096321205132
2.1638888888888888,-0.1535607383287861
2.166666666666667,-0.17364817766693305
2.1694444444444447,-0.19366362180567814
2.1722222222222225,-0.21359877226524313
2.1750000000000003,-0.23344536385590783
2.177777777777778,-0.25319516810480347
2.180555555555556,-0.27283999666746384
2.1833333333333336,-0.2923717047227389
2.1861111111111113,-0.31178219434967935
2.188888888888889,-0.3310634178849589
2.191666666666667,-0.350207381259471
2.1944444444444446,-0.3692061473126873
2.1972222222222224,-0.3880518390834551
2.2,-0.4067366430758018
2.202777777777778,-0.42525281249844393
2.2055555555555557,-0.44359267047663625
2.2083333333333335,-0.46174861323503685
2.2111111111111112,-0.4797131132502485
2.213888888888889,-0.4974787223717781
2.216666666666667,-0.5150380749100553
2.2194444444444446,-0.532383890690279
2.2222222222222223,-0.5495089780708059
2.225,-0.5664062369248352
2.227777777777778,-0.5830686615841364
2.2305555555555556,-0.5994893437436449
2.2333333333333334,-0.6156614753256588
2.236111111111111,-0.6315783513024976
2.238888888888889,-0.647233372476432
2.2416666666666667,-0.6626200482157392
2.2444444444444445,-0.6777319991457335
2.2472222222222222,-0.6925629597936949
2.25,-0.7071067811865477
2.2527777777777778,-0.7213574334002509
2.2555555555555555,-0.7353090080598279
2.2583333333333333,-0.7489557207890033
2.261111111111111,-0.7622919136084186
2.263888888888889,-0.7753120572814661
2.2666666666666666,-0.7880107536067218
2.2694444444444444,-0.8003827376560632
2.272222222222222,-0.8124228799575282
2.275,-0.8241261886220164
2.2777777777777777,-0.8354878114129367
2.2805555555555554,-0.8465030377579761
2.283333333333333,-0.8571673007021119
2.286111111111111,-0.8674761788010917
2.288888888888889,-0.8774253979545826
2.291666666666667,-0.8870108331782237
2.2944444444444447,-0.896228510313865
2.2972222222222225,-0.9050746076772712
2.3000000000000003,-0.9135454576426019
2.302777777777778,-0.9216375481630245
2.305555555555556,-0.9293475242268228
2.3083333333333336,-0.936672189248399
2.3111111111111113,-0.9436085063935846
2.313888888888889,-0.9501535998387319
2.316666666666667,-0.956304755963036
2.3194444444444446,-0.9620594244736135
2.3222222222222224,-0.967415219462864
2.325,-0.9723699203976773
2.327777777777778,-0.9769214730400716
2.3305555555555557,-0.981067990298893
2.3333333333333335,-0.9848077530122082
2.3361111111111112,-0.988139210660076
2.338888888888889,-0.9910609820073987
2.341666666666667,-0.9935718556765878
2.3444444444444446,-0.9956707906498046
2.3472222222222223,-0.9973569167005724
2.35,-0.9986295347545739
2.352777777777778,-0.9994881171794909
2.3555555555555556,-0.9999323080037622
2.3583333333333334,-0.9999619230641713
2.361111111111111,-0.9995769500822005
2.363888888888889,-0.9987775486691225
2.3666666666666667,-0.9975640502598242
2.3694444444444445,-0.9959369579753928
2.3722222222222222,-0.9938969464145196
2.375,-0.9914448613738102
2.3777777777777778,-0.9885817194971115
2.3805555555555555,-0.9853087078540094
2.3833333333333333,-0.981627183447664
2.386111111111111,-0.9775386726521917
2.388888888888889,-0.9730448705798234
2.3916666666666666,-0.9681476403781074
2.3944444444444444,-0.9628490124574374
2.397222222222222,-0.9571511836492388
2.4,-0.9510565162951538
2.4027777777777777,-0.9445675372676052
2.4055555555555554,-0.9376869369221443
2.408333333333333,-0.9304175679820242
2.411111111111111,-0.9227624443554423
2.413888888888889,-0.9147247398859658
2.416666666666667,-0.9063077870366489
2.4194444444444447,-0.897515075508372
2.4222222222222225,-0.8883502507930037
2.4250000000000003,-0.8788171126619635
2.427777777777778,-0.8689196135908286
2.430555555555556,-0.8586618571206118
2.4333333333333336,-0.848048096156425
2.4361111111111113,-0.8370827312042063
2.438888888888889,-0.8257703085462519
2.441666666666667,-0.8141155183563172
2.4444444444444446,-0.8021231927550422
2.4472222222222224,-0.7897983038065421
2.45,-0.77714596145697
2.452777777777778,-0.7641714114159125
2.4555555555555557,-0.7508800329814969
2.4583333333333335,-0.7372773368101221
2.4611111111111112,-0.7233689626317065
2.463888888888889,-0.7091606769114426
2.466666666666667,-0.6946583704589966
2.4694444444444446,-0.6798680559861565
2.4722222222222223,-0.6647958656139356
2.475,-0.6494480483301819
2.477777777777778,-0.6338309673987089
2.4805555555555556,-0.6179510977210724
2.4833333333333334,-0.6018150231520479
2.486111111111111,-0.5854294337699407
2.488888888888889,-0.5688011231028497
2.4916666666666667,-0.5519369853120566
2.4944444444444445,-0.5348440123336633
2.4972222222222222,-0.5175292909797193
2.5,-0.5000000000000001
2.5027777777777778,-0.4822634071056693
2.5055555555555555,-0.46432686595605516
2.5083333333333333,-0.44619781310980755
2.511111111111111,-0.42788376494165364
2.513888888888889,-0.4093923145260925
2.5166666666666666,-0.3907311284892743
2.5194444444444444,-0.37190794383038783
2.522222222222222,-0.3529305647138674
2.525,-0.33380685923377007
2.5277777777777777,-0.3145447561516135
2.5305555555555554,-0.2951522416090943
2.533333333333333,-0.2756373558170003
2.5361111111111114,-0.2560081897217041
2.538888888888889,-0.2362728816506368
2.541666666666667,-0.21643961393809902
2.5444444444444447,-0.1965166095328269
2.5472222222222225,-0.17651212858873655
2.5500000000000003,-0.15643446504022895
2.552777777777778,-0.13629194316349322
2.555555555555556,-0.11609291412522611
2.5583333333333336,-0.09584575252022054
2.5611111111111113,-0.0755588528992053
2.563888888888889,-0.05524062628844636
2.566666666666667,-0.03489949670249953
2.5694444444444446,-0.014543897651581894
2.5722222222222224,0.005817731354997474
2.575,0.026176948307876115
2.577777777777778,0.046525312197748935
2.5805555555555557,0.06685438651502877
2.5833333333333335,0.08715574274765911
2.5861111111111112,0.10742096387560748
2.588888888888889,0.1276416478605977
2.591666666666667,0.14780941112961304
2.5944444444444446,0.16791589205077884
2.5972222222222223,0.18795275440011297
2.6,0.20791169081775976
2.602777777777778,0.22778442625225326
2.6055555555555556,0.24756272139138863
2.6083333333333334,0.2672383760782588
2.611111111111111,0.2868032327110915
2.613888888888889,0.3062491796254086
2.6166666666666667,0.3255681544571566
2.6194444444444445,0.34475214748539357
2.6222222222222222,0.3637932049531535
2.625,0.3826834323650911
2.6277777777777778,0.40141499776059
2.6305555555555555,0.4199801349609097
2.6333333333333333,0.4383711467890769
2.636111111111111,0.45658040826116447
2.638888888888889,0.47460036974764186
2.6416666666666666,0.492423560103468
2.6444444444444444,0.5100425897656755
2.647222222222222,0.5274501538170993
2.65,0.5446390350150262
2.6527777777777777,0.5616021067834944
2.6555555555555554,0.5783323361679874
2.658333333333333,0.5948227867513417
2.6611111111111114,0.6110666215296024
2.663888888888889,0.6270571057466637
2.666666666666667,0.6427876096865408
2.6694444444444447,0.6582516114220648
2.6722222222222225,0.6734426995189035
2.6750000000000003,0.6883545756937566
2.677777777777778,0.7029810574256637
2.680555555555556,0.717316080519291
2.6833333333333336,0.7313537016191715
2.6861111111111113,0.7450881006738442
2.688888888888889,0.7585135833488713
2.691666666666667,0.7716245833877219
2.6944444444444446,0.7844156649195771
2.6972222222222224,0.7968815247130542
2.7,0.809016994374948
2.702777777777778,0.8208170424930674
2.7055555555555557,0.8322767767222795
2.7083333333333335,0.843391445812887
2.7111111111111112,0.8541564415805265
2.713888888888889,0.8645673008167312
2.716666666666667,0.8746197071393961
2.7194444444444446,0.8843094927823686
2.7222222222222223,0.8936326403234135
2.725,0.9025852843498615
2.727777777777778,0.9111637130612176
2.7305555555555556,0.9193643698080893
2.7333333333333334,0.9271838545667874
2.736111111111111,0.9346189253489895
2.738888888888889,0.9416664995458761
2.7416666666666667,0.9483236552061998
2.7444444444444445,0.9545876322477322
2.7472222222222222,0.9604558336016057
2.75,0.9659258262890682
2.7527777777777778,0.9709953424302066
2.7555555555555555,0.9756622801842146
2.7583333333333333,0.9799247046208298
2.761111111111111,0.9837808485225589
2.763888888888889,0.987229113117374
2.7666666666666666,0.9902680687415701
2.7694444444444444,0.9928964554325092
2.772222222222222,0.9951131834510032
2.775,0.996917333733128
2.7777777777777777,0.9983081582712682
2.7805555555555554,0.9992850804242445
2.7833333333333337,0.9998476951563913
2.7861111111111114,0.9999957692054863
2.788888888888889,0.9997292411794616
2.791666666666667,0.9990482215818576
2.7944444444444447,0.9979529927660072
2.7972222222222225,0.9964440088179713
2.8000000000000003,0.9945218953682732
2.802777777777778,0.9921874493325086
2.805555555555556,0.989441638580944
2.8083333333333336,0.9862856015372309
2.8111111111111113,0.9827206467064128
2.813888888888889,0.9787482521324137
2.816666666666667,0.974370064785235
2.8194444444444446,0.9695878998781151
2.8222222222222224,0.9644037401149381
2.825,0.9588197348681923
2.827777777777778,0.9528381992878355
2.8305555555555557,0.9464616133414239
2.8333333333333335,0.9396926207859082
2.8361111111111112,0.9325340280715206
2.838888888888889,0.9249888031782151
2.841666666666667,0.9170600743851232
2.8444444444444446,0.9087511289735637
2.8472222222222223,0.9000654118641208
2.85,0.8910065241883678
2.852777777777778,0.8815782217958219
2.8555555555555556,0.8717844136967613
2.8583333333333334,0.8616291604415249
2.861111111111111,0.8511166724369993
2.863888888888889,0.8402513082009655
2.8666666666666667,0.829037572555042
2.8694444444444445,0.8174801147569651
2.8722222222222222,0.8055837265729983
2.875,0.7933533402912345
2.8777777777777778,0.780794026676659
2.8805555555555555,0.7679109928687887
2.8833333333333333,0.7547095802227726
2.886111111111111,0.7411952620948423
2.888888888888889,0.7273736415730478
2.8916666666666666,0.7132504491541811
2.8944444444444444,0.6988315403679001
2.897222222222222,0.6841228933490004
2.9,0.6691306063588592
2.9027777777777777,0.6538608952570686
2.9055555555555554,0.6383200909243276
2.9083333333333337,0.6225146366376166
2.9111111111111114,0.6064510853988111
2.913888888888889,0.5901360972177625
2.916666666666667,0.5735764363510447
2.9194444444444447,0.5567789684974607
2.9222222222222225,0.5397506579515097
2.9250000000000003,0.5224985647159461
2.927777777777778,0.5050298415746879
2.930555555555556,0.48735173112724073
2.9333333333333336,0.46947156278588975
2.9361111111111113,0.4513967497368932
2.938888888888889,0.43313478586696
2.941666666666667,0.41469324265623664
2.9444444444444446,0.396079766039155
2.9472222222222224,0.37730207323439574
2.95,0.35836794954529966
2.952777777777778,0.33928524513204794
2.9555555555555557,0.3200618717569689
2.9583333333333335,0.30070579950427107
2.9611111111111112,0.28122505347562915
2.963888888888889,0.26162771046294275
2.966666666666667,0.2419218955996676
2.9694444444444446,0.2221157789921004
2.9722222222222223,0.20221757233203563
2.975,0.1822355254921458
2.977777777777778,0.16217792310556647
2.9805555555555556,0.14205308113105208
2.9833333333333334,0.12186934340514784
2.986111111111111,0.10163507818279936
2.988888888888889,0.08135867466785644
2.9916666666666667,0.06104853953485571
2.9944444444444445,0.04071309344359534
2.9972222222222222,0.020360767547893736
3.0,-2.6954609193973537e-15
3.0027777777777778,-0.020360767547895574
3.0055555555555555,-0.04071309344359718
3.0083333333333333,-0.06104853953485754
3.011111111111111,-0.08135867466785827
3.013888888888889,-0.1016350781828012
3.0166666666666666,-0.12186934340514967
3.0194444444444444,-0.14205308113105392
3.022222222222222,-0.16217792310556828
3.025,-0.18223552549214764
3.0277777777777777,-0.20221757233203744
3.030555555555556,-0.22211577899210563
3.0333333333333337,-0.24192189559966937
3.0361111111111114,-0.26162771046294797
3.038888888888889,-0.2812250534756343
3.041666666666667,-0.30070579950427617
3.0444444444444447,-0.320061871756974
3.0472222222222225,-0.33928524513205305
3.0500000000000003,-0.3583679495453014
3.052777777777778,-0.37730207323440074
3.055555555555556,-0.39607976603915995
3.0583333333333336,-0.4146932426562415
3.0611111111111113,-0.43313478586696486
3.063888888888889,-0.45139674973689803
3.066666666666667,-0.4694715627858914
3.0694444444444446,-0.48735173112724545
3.0722222222222224,-0.5050298415746926
3.075,-0.5224985647159508
3.077777777777778,-0.5397506579515142
3.0805555555555557,-0.5567789684974652
3.0833333333333335,-0.5735764363510492
3.0861111111111112,-0.5901360972177669
3.088888888888889,-0.6064510853988153
3.091666666666667,-0.6225146366376209
3.0944444444444446,-0.6383200909243291
3.0972222222222223,-0.6538608952570699
3.1,-0.6691306063588607
3.102777777777778,-0.6841228933490018
3.1055555555555556,-0.6988315403679014
3.1083333333333334,-0.7132504491541825
3.111111111111111,-0.7273736415730491
3.113888888888889,-0.7411952620948435
3.1166666666666667,-0.7547095802227738
3.1194444444444445,-0.7679109928687899
3.1222222222222222,-0.7807940266766601
3.125,-0.7933533402912356
3.1277777777777778,-0.8055837265729994
3.1305555555555555,-0.8174801147569661
3.1333333333333333,-0.829037572555043
3.136111111111111,-0.8402513082009665
3.138888888888889,-0.8511166724370002
3.1416666666666666,-0.8616291604415258
3.1444444444444444,-0.8717844136967622
3.147222222222222,-0.8815782217958228
3.15,-0.8910065241883687
3.1527777777777777,-0.9000654118641216
3.155555555555556,-0.9087511289735659
3.1583333333333337,-0.9170600743851254
3.1611111111111114,-0.9249888031782171
3.163888888888889,-0.9325340280715226
3.166666666666667,-0.93969262078591
3.1694444444444447,-0.9464616133414256
3.1722222222222225,-0.9528381992878371
3.1750000000000003,-0.9588197348681938
3.177777777777778,-0.9644037401149395
3.180555555555556,-0.9695878998781163
3.1833333333333336,-0.9743700647852362
3.1861111111111113,-0.9787482521324148
3.188888888888889,-0.9827206467064138
3.191666666666667,-0.9862856015372318
3.1944444444444446,-0.9894416385809448
3.1972222222222224,-0.9921874493325092
3.2,-0.9945218953682737
3.202777777777778,-0.9964440088179718
3.2055555555555557,-0.9979529927660076
3.2083333333333335,-0.9990482215818578
3.2111111111111112,-0.9997292411794617
3.213888888888889,-0.9999957692054863
3.216666666666667,-0.9998476951563912
3.2194444444444446,-0.9992850804242444
3.2222222222222223,-0.9983081582712681
3.225,-0.9969173337331279
3.227777777777778,-0.995113183451003
3.2305555555555556,-0.9928964554325089
3.2333333333333334,-0.9902680687415699
3.236111111111111,-0.9872291131173737
3.238888888888889,-0.9837808485225585
3.2416666666666667,-0.9799247046208295
3.2444444444444445,-0.9756622801842143
3.2472222222222222,-0.9709953424302061
3.25,-0.9659258262890676
3.2527777777777778,-0.9604558336016051
3.2555555555555555,-0.9545876322477317
3.2583333333333333,-0.9483236552061992
3.261111111111111,-0.9416664995458754
3.263888888888889,-0.9346189253489888
3.2666666666666666,-0.9271838545667868
3.2694444444444444,-0.9193643698080887
3.272222222222222,-0.9111637130612168
3.275,-0.9025852843498607
3.277777777777778,-0.893632640323411
3.280555555555556,-0.884309492782366
3.2833333333333337,-0.8746197071393934
3.2861111111111114,-0.8645673008167285
3.288888888888889,-0.8541564415805237
3.291666666666667,-0.8433914458128842
3.2944444444444447,-0.8322767767222765
3.2972222222222225,-0.8208170424930663
3.3000000000000003,-0.8090169943749448
3.302777777777778,-0.796881524713051
3.305555555555556,-0.7844156649195738
3.3083333333333336,-0.7716245833877184
3.3111111111111113,-0.7585135833488679
3.313888888888889,-0.745088100673843
3.316666666666667,-0.7313537016191679
3.3194444444444446,-0.7173160805192872
3.3222222222222224,-0.7029810574256599
3.325,-0.6883545756937526
3.327777777777778,-0.6734426995188995
3.3305555555555557,-0.6582516114220633
3.3333333333333335,-0.6427876096865367
3.3361111111111112,-0.6270571057466595
3.338888888888889,-0.6110666215295981
3.341666666666667,-0.5948227867513401
3.3444444444444446,-0.578332336167986
3.3472222222222223,-0.5616021067834929
3.35,-0.5446390350150246
3.352777777777778,-0.5274501538170977
3.3555555555555556,-0.510042589765674
3.3583333333333334,-0.4924235601034664
3.361111111111111,-0.47460036974764025
3.363888888888889,-0.45658040826116286
3.3666666666666667,-0.4383711467890753
3.3694444444444445,-0.41998013496090797
3.3722222222222222,-0.40141499776058825
3.375,-0.38268343236508945
3.3777777777777778,-0.36379320495315176
3.3805555555555555,-0.34475214748539185
3.3833333333333333,-0.32556815445715487
3.386111111111111,-0.3062491796254069
3.388888888888889,-0.2868032327110897
3.3916666666666666,-0.267238376078257
3.3944444444444444,-0.24756272139138685
3.397222222222222,-0.22778442625225148
3.4,-0.20791169081775798
3.402777777777778,-0.18795275440010767
3.405555555555556,-0.16791589205077354
3.4083333333333337,-0.14780941112960772
3.4111111111111114,-0.12764164786059237
3.413888888888889,-0.10742096387560565
3.416666666666667,-0.08715574274765374
3.4194444444444447,-0.06685438651502339
3.4222222222222225,-0.04652531219774355
3.4250000000000003,-0.026176948307870727
3.427777777777778,-0.005817731354992083
3.430555555555556,0.014543897651587284
3.4333333333333336,0.034899496702504924
3.4361111111111113,0.05524062628845174
3.438888888888889,0.07555885289921069
3.441666666666667,0.09584575252022591
3.4444444444444446,0.11609291412523147
3.4472222222222224,0.13629194316349857
3.45,0.15643446504023428
3.452777777777778,0.17651212858874185
3.4555555555555557,0.19651660953283218
3.4583333333333335,0.21643961393810426
3.4611111111111112,0.23627288165064206
3.463888888888889,0.2560081897217093
3.466666666666667,0.27563735581700205
3.4694444444444446,0.2951522416090961
3.4722222222222223,0.3145447561516152
3.475,0.3338068592337718
3.477777777777778,0.35293056471386913
3.4805555555555556,0.37190794383038955
3.4833333333333334,0.390731128489276
3.486111111111111,0.40939231452609415
3.488888888888889,0.4278837649416553
3.4916666666666667,0.44619781310980916
3.4944444444444445,0.46432686595605677
3.4972222222222222,0.4822634071056709
3.5,0.5000000000000017
3.5027777777777778,0.5175292909797209
3.5055555555555555,0.5348440123336649
3.5083333333333333,0.5519369853120581
3.511111111111111,0.5688011231028511
3.513888888888889,0.5854294337699423
3.5166666666666666,0.6018150231520495
3.5194444444444444,0.6179510977210738
3.522222222222222,0.6338309673987104
3.5250000000000004,0.6494480483301859
3.527777777777778,0.6647958656139396
3.530555555555556,0.6798680559861605
3.5333333333333337,0.6946583704590005
3.5361111111111114,0.7091606769114464
3.538888888888889,0.7233689626317101
3.541666666666667,0.7372773368101257
3.5444444444444447,0.7508800329815004
3.5472222222222225,0.764171411415916
3.5500000000000003,0.7771459614569735
3.552777777777778,0.7897983038065455
3.555555555555556,0.8021231927550454
3.5583333333333336,0.8141155183563203
3.5611111111111113,0.8257703085462549
3.563888888888889,0.8370827312042093
3.566666666666667,0.8480480961564278
3.5694444444444446,0.8586618571206146
3.5722222222222224,0.8689196135908313
3.575,0.878817112661966
3.577777777777778,0.8883502507930044
3.5805555555555557,0.8975150755083743
3.5833333333333335,0.9063077870366513
3.5861111111111112,0.914724739885968
3.588888888888889,0.922762444355443
3.591666666666667,0.9304175679820249
3.5944444444444446,0.937686936922145
3.5972222222222223,0.9445675372676058
3.6,0.9510565162951543
3.602777777777778,0.9571511836492393
3.6055555555555556,0.9628490124574379
3.6083333333333334,0.9681476403781079
3.611111111111111,0.9730448705798238
3.613888888888889,0.9775386726521921
3.6166666666666667,0.9816271834476643
3.6194444444444445,0.9853087078540096
3.6222222222222222,0.9885817194971118
3.625,0.9914448613738104
3.6277777777777778,0.9938969464145199
3.6305555555555555,0.9959369579753931
3.6333333333333333,0.9975640502598243
3.636111111111111,0.9987775486691226
3.638888888888889,0.9995769500822006
3.6416666666666666,0.9999619230641713
3.6444444444444444,0.9999323080037622
3.647222222222222,0.9994881171794908
3.6500000000000004,0.9986295347545736
3.652777777777778,0.997356916700572
3.655555555555556,0.9956707906498041
3.6583333333333337,0.9935718556765872
3.6611111111111114,0.9910609820073984
3.663888888888889,0.9881392106600753
3.666666666666667,0.9848077530122074
3.6694444444444447,0.9810679902988919
3.6722222222222225,0.9769214730400704
3.6750000000000003,0.9723699203976761
3.677777777777778,0.9674152194628636
3.680555555555556,0.962059424473612
3.6833333333333336,0.9563047559630344
3.6861111111111113,0.9501535998387303
3.688888888888889,0.9436085063935828
3.691666666666667,0.9366721892483971
3.6944444444444446,0.9293475242268221
3.6972222222222224,0.9216375481630223
3.7,0.9135454576425996
3.702777777777778,0.9050746076772689
3.7055555555555557,0.8962285103138626
3.7083333333333335,0.8870108331782212
3.7111111111111112,0.8774253979545817
3.713888888888889,0.8674761788010908
3.716666666666667,0.857167300702111
3.7194444444444446,0.8465030377579751
3.7222222222222223,0.8354878114129357
3.725,0.8241261886220154
3.727777777777778,0.8124228799575272
3.7305555555555556,0.800382737656062
3.7333333333333334,0.7880107536067207
3.736111111111111,0.7753120572814649
3.738888888888889,0.7622919136084174
3.7416666666666667,0.7489557207890021
3.7444444444444445,0.7353090080598267
3.7472222222222222,0.7213574334002497
3.75,0.7071067811865464
3.7527777777777778,0.6925629597936935
3.7555555555555555,0.6777319991457321
3.7583333333333333,0.6626200482157378
3.761111111111111,0.6472333724764305
3.763888888888889,0.6315783513024962
3.7666666666666666,0.6156614753256574
3.7694444444444444,0.5994893437436435
3.7722222222222226,0.5830686615841321
3.7750000000000004,0.5664062369248306
3.777777777777778,0.5495089780708045
3.780555555555556,0.5323838906902745
3.7833333333333337,0.5150380749100506
3.7861111111111114,0.4974787223717734
3.788888888888889,0.4797131132502438
3.791666666666667,0.461748613235032
3.7944444444444447,0.4435926704766314
3.7972222222222225,0.42525281249843905
3.8000000000000003,0.4067366430757969
3.802777777777778,0.38805183908345015
3.805555555555556,0.3692061473126823
3.8083333333333336,0.35020738125946593
3.8111111111111113,0.33106341788495386
3.813888888888889,0.31178219434967425
3.816666666666667,0.2923717047227337
3.8194444444444446,0.2728399966674586
3.8222222222222224,0.2531951681048
3.825,0.2334453638559043
3.827777777777778,0.21359877226523613
3.8305555555555557,0.19366362180567284
3.8333333333333335,0.17364817766692772
3.8361111111111112,0.15356073832878428
3.838888888888889,0.1334096321205114
3.841666666666667,0.1132032137679061
3.8444444444444446,0.09294986092938871
3.8472222222222223,0.07265797072260778
3.85,0.05233595624294168
3.852777777777778,0.031992243075411195
3.8555555555555556,0.011635265801396209
3.8583333333333334,-0.008726535498374067
3.861111111111111,-0.029084718743114413
3.863888888888889,-0.04943084335208844
3.8666666666666667,-0.06975647374412695
3.8694444444444445,-0.09005318283503806
3.8722222222222222,-0.11031255553151202
3.875,-0.13052619222005124
3.8777777777777778,-0.1506857122494856
3.8805555555555555,-0.1707827574056086
3.8833333333333333,-0.19080899537654594
3.886111111111111,-0.21075612320734996
3.888888888888889,-0.23061587074244
3.8916666666666666,-0.25038000405444055
3.8944444444444444,-0.2700403288580027
3.8972222222222226,-0.2895886939071756
3.9000000000000004,-0.30901699437495145
3.902777777777778,-0.3283171752135644
3.905555555555556,-0.3474812344941341
3.9083333333333337,-0.3665012267242993
3.9111111111111114,-0.385369266142453
3.913888888888889,-0.40407752998719576
3.916666666666667,-0.4226182617407028
3.9194444444444447,-0.44098377434459257
3.9222222222222225,-0.45916645338701373
3.9250000000000003,-0.4771587602596099
3.927777777777778,-0.4949532352830581
3.930555555555556,-0.5125425007998685
3.9333333333333336,-0.5299192642332077
3.9361111111111113,-0.5470763211104166
3.938888888888889,-0.564006558050016
3.941666666666667,-0.5807029557109408
3.9444444444444446,-0.5971585917027894
3.9472222222222224,-0.6133666434558618
3.95,-0.6293203910498396
3.952777777777778,-0.6450132199998799
3.9555555555555557,-0.6604386239990088
3.9583333333333335,-0.6755902076156608
3.9611111111111112,-0.6904616889452522
3.963888888888889,-0.7050469022146725
3.966666666666667,-0.7193398003386526
3.9694444444444446,-0.7333344574268998
3.9722222222222223,-0.7470250712409966
3.975,-0.760405965600031
3.977777777777778,-0.7734715927339659
3.9805555555555556,-0.7862165355837557
3.9833333333333334,-0.7986355100472939
3.986111111111111,-0.8107233671702129
3.988888888888889,-0.8224750952806624
3.9916666666666667,-0.833885822067168
3.9944444444444445,-0.8449508165987115
3.9972222222222222,-0.8556654912861861
4.0,-0.8660254037844393
4.002777777777778,-0.8760262588340806
4.0055555555555555,-0.8856639100423059
4.008333333333334,-0.8949343616020263
4.011111111111111,-0.9038337699485214
4.013888888888889,-0.9123584453530161
4.016666666666667,-0.9205048534524406
4.019444444444445,-0.928269616714808
4.022222222222222,-0.9356495158395313
4.025,-0.9426414910921791
4.027777777777778,-0.9492426435730345
4.030555555555556,-0.9554502364190034
4.033333333333333,-0.9612616959383189
4.036111111111111,-0.9666746126776148
4.038888888888889,-0.9716867424208799
4.041666666666667,-0.9762960071199337
4.044444444444444,-0.9805004957559795
4.0472222222222225,-0.9842984651319303
4.05,-0.9876883405951377
4.052777777777778,-0.9906687166902564
4.055555555555555,-0.9932383577419428
4.058333333333334,-0.995396198367179
4.061111111111111,-0.9971413439169775
4.063888888888889,-0.9984730708473115
4.066666666666666,-0.9993908270190957
4.069444444444445,-0.9998942319271076
4.072222222222222,-0.9999830768577442
4.075,-0.9996573249755571
4.0777777777777775,-0.9989171113385246
4.080555555555556,-0.9977627428420541
4.083333333333334,-0.996194698091745
4.086111111111111,-0.994213627204956
4.0888888888888895,-0.9918203515412611
4.091666666666667,-0.9890158633619163
4.094444444444445,-0.9858013254184586
4.097222222222222,-0.9821780704706302
4.1000000000000005,-0.9781476007338046
4.102777777777778,-0.9737115872561707
4.105555555555556,-0.9688718692258997
4.108333333333333,-0.9636304532086221
4.111111111111112,-0.9579895123154871
4.113888888888889,-0.9519513853021925
4.116666666666667,-0.9455185755993152
4.1194444444444445,-0.9386937502743952
4.122222222222223,-0.9314797389261411
4.125,-0.9238795325112856
4.127777777777778,-0.9158962821045088
4.1305555555555555,-0.907533297592003
4.133333333333334,-0.898794046299165
4.136111111111111,-0.8896821515530517
4.138888888888889,-0.8802013911801098
4.141666666666667,-0.8703556959398986
4.144444444444445,-0.8601491478953627
4.147222222222222,-0.8495859787204101
4.15,-0.8386705679454219
4.152777777777778,-0.8274074411415108
4.155555555555556,-0.8158012680441706
4.158333333333333,-0.8038568606172163
4.161111111111111,-0.7915791710577006
4.163888888888889,-0.7789732897427354
4.166666666666667,-0.7660444431189759
4.169444444444444,-0.7527979915357488
4.1722222222222225,-0.7392394270225947
4.175,-0.7253743710122867
4.177777777777778,-0.7112085720101342
4.180555555555555,-0.696747903210655
4.183333333333334,-0.6819983600624964
4.186111111111111,-0.6669660577827372
4.188888888888889,-0.651657228821454
4.191666666666666,-0.6360782202777633
4.194444444444445,-0.6202354912682572
4.197222222222222,-0.6041356102490567
4.2,-0.5877852522924712
4.2027777777777775,-0.5711911963195302
4.205555555555556,-0.5543603222893707
4.208333333333334,-0.5372996083468206
4.211111111111111,-0.5200161279292127
4.2138888888888895,-0.5025170468337046
4.216666666666667,-0.4848096202463354
4.219444444444445,-0.46690118973396166
4.222222222222222,-0.4487991802004617
4.2250000000000005,-0.43051109680828886
4.227777777777778,-0.41204452186686585
4.230555555555556,-0.39340711168885995
4.233333333333333,-0.3746065934159108
4.236111111111112,-0.35565076181487254
4.238888888888889,-0.33654747604612634
4.241666666666667,-0.31730465640508604
4.2444444444444445,-0.2979302810384799
4.247222222222223,-0.27843238263650694
4.25,-0.2588190451025199
4.252777777777778,-0.2390984002013507
4.2555555555555555,-0.21927862418790378
4.258333333333334,-0.19936793441719136
4.261111111111111,-0.1793745859374557
4.263888888888889,-0.15930686806751806
4.266666666666667,-0.13917310096006508
4.269444444444445,-0.11898163215202219
4.272222222222222,-0.09874083310368889
4.275,-0.07845909572783952
4.277777777777778,-0.05814482891047462
4.280555555555556,-0.037806455024386815
4.283333333333333,-0.01745240643728365
4.286111111111111,0.0029088779843646734
4.288888888888889,0.023268956374058385
4.291666666666667,0.043619387365340934
4.294444444444444,0.06395173359158636
4.2972222222222225,0.08425756518420632
4.3,0.10452846326765283
4.302777777777778,0.12475602344997283
4.305555555555555,0.14493185930724828
4.308333333333334,0.16504760586068204
4.311111111111111,0.1850949230447148
4.313888888888889,0.2050654991648905
4.316666666666666,0.2249510543438639
4.319444444444445,0.24474334395432548
4.322222222222222,0.26443416203720327
4.325,0.2840153447039264
4.3277777777777775,0.30347877352117036
4.330555555555556,0.3228163788768313
4.333333333333334,0.3420201433256739
4.336111111111111,0.3610821049134155
4.3388888888888895,0.3799943604778028
4.341666666666667,0.39874906892524936
4.344444444444445,0.41733845448182366
4.347222222222222,0.43575480991708126
4.3500000000000005,0.45399049973955125
4.352777777777778,0.4720379633623919
4.355555555555556,0.48988971823809013
4.358333333333333,0.5075383629607068
4.361111111111112,0.5249765803345652
4.363888888888889,0.5421971404079583
4.366666666666667,0.5591929034707506
4.3694444444444445,0.5759568230144835
4.372222222222223,0.5924819486539332
4.375,0.6087614290087198
4.377777777777778,0.6247885145439616
4.3805555555555555,0.6405565603686187
4.383333333333334,0.6560590289905129
4.386111111111111,0.671289493026786
4.388888888888889,0.686241637868738
4.391666666666667,0.7009092642998522
4.394444444444445,0.7152862910660549
4.397222222222222,0.7293667573969858
4.4,0.7431448254773966
4.402777777777778,0.7566147828674924
4.405555555555556,0.7697710448713692
4.408333333333333,0.7826081568524126
4.411111111111111,0.7951207964948482
4.413888888888889,0.8073037760103621
4.416666666666667,0.8191520442889956
4.419444444444444,0.8306606889933468
4.4222222222222225,0.8418249385952602
4.425,0.8526401643540927
4.427777777777778,0.8631018822358383
4.430555555555555,0.8732057547721955
4.433333333333334,0.8829475928589281
4.436111111111111,0.8923233574926547
4.438888888888889,0.9013291614454627
4.441666666666666,0.9099612708765419
4.444444444444445,0.9182161068802739
4.447222222222222,0.9260902469700388
4.45,0.9335804264972037
4.452777777777778,0.9406835400046549
4.455555555555556,0.9473966425143306
4.458333333333334,0.953716950748229
4.461111111111111,0.9596418442823501
4.4638888888888895,0.9651688666331509
4.466666666666667,0.9702957262759968
4.469444444444445,0.9750202975952516
4.472222222222222,0.9793406217655515
4.4750000000000005,0.9832549075639552
4.477777777777778,0.986761532112579
4.480555555555556,0.9898590415514601
4.483333333333333,0.9925461516413225
4.486111111111112,0.9948217482960338
4.488888888888889,0.9966848880445063
4.491666666666667,0.9981347984218674
4.4944444444444445,0.9991708782897214
4.497222222222223,0.9997926980853885
4.5,1.0
4.502777777777778,0.9997926980853884
4.5055555555555555,0.9991708782897213
4.508333333333334,0.9981347984218668
4.511111111111111,0.9966848880445063
4.513888888888889,0.9948217482960323
4.516666666666667,0.9925461516413217
4.519444444444445,0.9898590415514589
4.522222222222222,0.9867615321125789
4.525,0.9832549075639536
4.527777777777778,0.9793406217655514
4.530555555555556,0.9750202975952498
4.533333333333333,0.9702957262759966
4.536111111111111,0.9651688666331488
4.538888888888889,0.9596418442823498
4.541666666666667,0.9537169507482266
4.544444444444444,0.9473966425143303
4.5472222222222225,0.9406835400046498
4.55,0.9335804264972009
4.552777777777778,0.9260902469700358
4.555555555555555,0.9182161068802736
4.558333333333334,0.9099612708765416
4.561111111111111,0.9013291614454623
4.563888888888889,0.8923233574926542
4.566666666666666,0.8829475928589277
4.569444444444445,0.8732057547721951
4.572222222222222,0.8631018822358377
4.575,0.8526401643540922
4.577777777777778,0.8418249385952559
4.580555555555556,0.8306606889933423
4.583333333333334,0.8191520442889868
4.586111111111111,0.8073037760103573
4.5888888888888895,0.7951207964948434
4.591666666666667,0.782608156852412
4.594444444444445,0.7697710448713639
4.597222222222222,0.7566147828674917
4.6000000000000005,0.7431448254773911
4.602777777777778,0.729366757396985
4.605555555555556,0.7152862910660492
4.608333333333333,0.7009092642998516
4.611111111111112,0.6862416378687322
4.613888888888889,0.67128949302678
4.616666666666667,0.6560590289905015
4.6194444444444445,0.6405565603686125
4.622222222222223,0.6247885145439552
4.625,0.608761429008719
4.627777777777778,0.5924819486539268
4.6305555555555555,0.5759568230144827
4.633333333333334,0.5591929034707438
4.636111111111111,0.5421971404079575
4.638888888888889,0.5249765803345583
4.641666666666667,0.5075383629607059
4.644444444444445,0.4898897182380862
4.647222222222222,0.4720379633623879
4.65,0.45399049973954086
4.652777777777778,0.43575480991707716
4.655555555555556,0.41733845448181306
4.658333333333333,0.3987490689252452
4.661111111111111,0.3799943604777953
4.663888888888889,0.36108210491341464
4.666666666666667,0.34202014332566627
4.669444444444444,0.32281637887683035
4.6722222222222225,0.3034787735211694
4.675,0.2840153447039255
4.677777777777778,0.2644341620372023
4.680555555555555,0.24474334395432107
4.683333333333334,0.22495105434385948
4.686111111111111,0.20506549916488606
4.688888888888889,0.18509492304471037
4.691666666666666,0.16504760586067757
4.694444444444445,0.1449318593072438
4.697222222222222,0.12475602344997186
4.7,0.10452846326765186
4.702777777777778,0.08425756518419827
4.705555555555556,0.06395173359158537
4.708333333333334,0.04361938736533286
4.711111111111111,0.023268956374057403
4.7138888888888895,0.0029088779843530347
4.716666666666667,-0.017452406437288185
4.719444444444445,-0.037806455024398444
4.722222222222222,-0.058144828910479146
4.7250000000000005,-0.07845909572785112
4.727777777777778,-0.09874083310368988
4.730555555555556,-0.11898163215203021
4.733333333333333,-0.13917310096006605
4.736111111111112,-0.15930686806752603
4.738888888888889,-0.17937458593745667
4.741666666666667,-0.1993679344171993
4.7444444444444445,-0.21927862418790822
4.747222222222223,-0.23909840020136203
4.75,-0.2588190451025243
4.752777777777778,-0.2784323826365181
4.7555555555555555,-0.29793028103848423
4.758333333333334,-0.3173046564050971
4.761111111111111,-0.3365474760461273
4.763888888888889,-0.3556507618148801
4.766666666666667,-0.3746065934159117
4.769444444444445,-0.3934071116888674
4.772222222222222,-0.41204452186686674
4.775,-0.4305110968082962
4.777777777777778,-0.4487991802004658
4.780555555555556,-0.466901189733972
4.783333333333333,-0.4848096202463394
4.786111111111111,-0.5025170468337147
4.788888888888889,-0.5200161279292166
4.791666666666667,-0.5372996083468273
4.794444444444444,-0.5543603222893715
4.7972222222222225,-0.571191196319531
4.8,-0.587785252292472
4.802777777777778,-0.6041356102490575
4.805555555555555,-0.6202354912682579
4.808333333333334,-0.6360782202777641
4.811111111111111,-0.6516572288214575
4.813888888888889,-0.6669660577827405
4.816666666666666,-0.6819983600624997
4.819444444444445,-0.6967479032106583
4.822222222222222,-0.7112085720101374
4.825,-0.7253743710122899
4.827777777777778,-0.7392394270226001
4.830555555555556,-0.7527979915357493
4.833333333333334,-0.7660444431189811
4.836111111111111,-0.7789732897427359
4.8388888888888895,-0.7915791710577055
4.841666666666667,-0.8038568606172168
4.844444444444445,-0.8158012680441732
4.847222222222222,-0.8274074411415133
4.8500000000000005,-0.8386705679454283
4.852777777777778,-0.8495859787204125
4.855555555555556,-0.8601491478953687
4.858333333333333,-0.8703556959399008
4.861111111111112,-0.8802013911801135
4.863888888888889,-0.8896821515530522
4.866666666666667,-0.8987940462991686
4.8694444444444445,-0.9075332975920034
4.872222222222223,-0.915896282104512
4.875,-0.9238795325112861
4.877777777777778,-0.9314797389261453
4.8805555555555555,-0.9386937502743967
4.883333333333334,-0.9455185755993191
4.886111111111111,-0.9519513853021939
4.888888888888889,-0.9579895123154905
4.891666666666667,-0.9636304532086233
4.894444444444445,-0.9688718692259017
4.897222222222222,-0.9737115872561709
4.9,-0.9781476007338062
4.902777777777778,-0.9821780704706304
4.905555555555556,-0.9858013254184599
4.908333333333333,-0.9890158633619164
4.911111111111111,-0.9918203515412626
4.913888888888889,-0.9942136272049564
4.916666666666667,-0.996194698091746
4.919444444444444,-0.9977627428420544
4.9222222222222225,-0.9989171113385248
4.925,-0.9996573249755573
4.927777777777778,-0.9999830768577442
4.930555555555555,-0.9998942319271076
4.933333333333334,-0.9993908270190957
4.936111111111111,-0.9984730708473114
4.938888888888889,-0.9971413439169774
4.941666666666666,-0.9953961983671785
4.944444444444445,-0.9932383577419422
4.947222222222223,-0.9906687166902548
4.95,-0.987688340595137
4.952777777777778,-0.9842984651319282
4.955555555555556,-0.9805004957559786
4.958333333333334,-0.976296007119932
4.961111111111111,-0.9716867424208797
4.9638888888888895,-0.9666746126776128
4.966666666666667,-0.9612616959383187
4.969444444444445,-0.9554502364190011
4.972222222222222,-0.9492426435730341
4.9750000000000005,-0.9426414910921777
4.977777777777778,-0.9356495158395296
4.980555555555556,-0.9282696167148037
4.983333333333333,-0.9205048534524388
4.986111111111112,-0.9123584453530114
4.988888888888889,-0.9038337699485195
4.991666666666667,-0.8949343616020227
4.9944444444444445,-0.8856639100423055
4.997222222222223,-0.8760262588340767
5.0,-0.8660254037844388
5.002777777777778,-0.8556654912861837
5.0055555555555555,-0.844950816598711
5.008333333333334,-0.8338858220671674
5.011111111111111,-0.8224750952806599
5.013888888888889,-0.8107233671702081
5.016666666666667,-0.7986355100472912
5.019444444444445,-0.7862165355837507
5.022222222222222,-0.773471592733963
5.025,-0.7604059656000282
5.027777777777778,-0.7470250712409959
5.030555555555556,-0.7333344574268967
5.033333333333333,-0.719339800338652
5.036111111111111,-0.7050469022146693
5.038888888888889,-0.6904616889452515
5.041666666666667,-0.67559020761566
5.044444444444444,-0.6604386239990053
5.0472222222222225,-0.6450132199998737
5.05,-0.6293203910498361
5.052777777777778,-0.6133666434558553
5.055555555555555,-0.5971585917027857
5.058333333333334,-0.580702955710937
5.061111111111111,-0.5640065580500151
5.063888888888889,-0.5470763211104128
5.066666666666666,-0.5299192642332069
5.069444444444445,-0.5125425007998646
5.072222222222223,-0.49495323528305113
5.075,-0.4771587602596028
5.077777777777778,-0.4591664533870034
5.080555555555556,-0.4409837743445853
5.083333333333334,-0.4226182617406923
5.086111111111111,-0.4040775299871883
5.0888888888888895,-0.3853692661424422
5.091666666666667,-0.3665012267242951
5.094444444444445,-0.3474812344941265
5.097222222222222,-0.32831717521356013
5.1000000000000005,-0.30901699437494373
5.102777777777778,-0.28958869390717124
5.105555555555556,-0.27004032885799834
5.108333333333333,-0.25038000405443617
5.111111111111112,-0.23061587074243212
5.113888888888889,-0.21075612320734555
5.116666666666667,-0.190808995376538
5.1194444444444445,-0.17078275740560414
5.122222222222223,-0.1506857122494776
5.125,-0.13052619222005024
5.127777777777778,-0.11031255553150751
5.1305555555555555,-0.09005318283503708
5.133333333333334,-0.06975647374412243
5.136111111111111,-0.04943084335208746
5.138888888888889,-0.02908471874310988
5.141666666666667,-0.008726535498369532
5.144444444444445,0.011635265801404294
5.147222222222222,0.031992243075415726
5.15,0.052335956242949754
5.152777777777778,0.0726579707226123
5.155555555555556,0.09294986092939676
5.158333333333333,0.11320321376790707
5.161111111111111,0.1334096321205159
5.163888888888889,0.15356073832878525
5.166666666666667,0.1736481776669322
5.169444444444444,0.1936636218056738
5.1722222222222225,0.21359877226524054
5.175,0.23344536385590872
5.177777777777778,0.2531951681048078
5.180555555555555,0.272839996667463
5.183333333333334,0.29237170472274143
5.186111111111111,0.3117821943496786
5.188888888888889,0.33106341788496146
5.191666666666666,0.3502073812594669
5.194444444444445,0.36920614731268653
5.197222222222223,0.3880518390834576
5.2,0.40673664307580104
5.202777777777778,0.4252528124984463
5.205555555555556,0.4435926704766355
5.208333333333334,0.4617486132350361
5.211111111111111,0.47971311325025084
5.2138888888888895,0.4974787223717835
5.216666666666667,0.5150380749100576
5.219444444444445,0.5323838906902844
5.222222222222222,0.5495089780708082
5.2250000000000005,0.5664062369248374
5.227777777777778,0.5830686615841357
5.230555555555556,0.599489343743647
5.233333333333333,0.6156614753256582
5.236111111111112,0.6315783513024997
5.238888888888889,0.6472333724764313
5.241666666666667,0.6626200482157438
5.2444444444444445,0.6777319991457355
5.247222222222223,0.6925629597936993
5.25,0.7071067811865496
5.252777777777778,0.7213574334002553
5.2555555555555555,0.7353090080598297
5.258333333333334,0.7489557207890051
5.261111111111111,0.7622919136084181
5.263888888888889,0.7753120572814678
5.266666666666667,0.7880107536067212
5.269444444444445,0.8003827376560647
5.272222222222222,0.8124228799575277
5.275,0.8241261886220199
5.277777777777778,0.8354878114129383
5.280555555555556,0.8465030377579794
5.283333333333333,0.8571673007021133
5.286111111111111,0.8674761788010948
5.288888888888889,0.8774253979545822
5.291666666666667,0.8870108331782233
5.294444444444444,0.8962285103138631
5.2972222222222225,0.9050746076772709
5.3,0.9135454576426001
5.302777777777778,0.9216375481630241
5.305555555555555,0.9293475242268238
5.308333333333334,0.9366721892483999
5.311111111111111,0.9436085063935843
5.313888888888889,0.9501535998387328
5.316666666666666,0.9563047559630358
5.319444444444445,0.9620594244736143
5.322222222222223,0.9674152194628657
5.325,0.9723699203976772
5.327777777777778,0.9769214730400722
5.330555555555556,0.9810679902988928
5.333333333333334,0.9848077530122088
5.336111111111111,0.9881392106600759
5.3388888888888895,0.9910609820073991
5.341666666666667,0.9935718556765881
5.344444444444445,0.9956707906498052
5.347222222222222,0.9973569167005726
5.3500000000000005,0.9986295347545743
5.352777777777778,0.9994881171794909
5.355555555555556,0.9999323080037623
5.358333333333333,0.9999619230641713
5.361111111111112,0.9995769500822005
5.363888888888889,0.9987775486691226
5.366666666666667,0.9975640502598241
5.3694444444444445,0.995936957975393
5.372222222222223,0.9938969464145198
5.375,0.9914448613738098
5.377777777777778,0.9885817194971106
5.3805555555555555,0.9853087078540088
5.383333333333334,0.9816271834476628
5.386111111111111,0.9775386726521912
5.388888888888889,0.9730448705798228
5.391666666666667,0.9681476403781076
5.394444444444445,0.9628490124574367
5.397222222222222,0.957151183649239
5.4,0.951056516295153
5.402777777777778,0.9445675372676055
5.405555555555556,0.9376869369221447
5.408333333333333,0.9304175679820232
5.411111111111111,0.9227624443554399
5.413888888888889,0.9147247398859663
5.416666666666667,0.9063077870366478
5.419444444444444,0.8975150755083723
5.4222222222222225,0.8883502507930023
5.425,0.8788171126619656
5.427777777777778,0.868919613590829
5.430555555555555,0.858661857120614
5.433333333333334,0.8480480961564254
5.436111111111111,0.8370827312042087
5.438888888888889,0.8257703085462503
5.441666666666667,0.8141155183563136
5.444444444444445,0.8021231927550405
5.447222222222223,0.7897983038065383
5.45,0.7771459614569683
5.452777777777778,0.7641714114159085
5.455555555555556,0.7508800329814974
5.458333333333334,0.7372773368101203
5.461111111111111,0.723368962631707
5.4638888888888895,0.7091606769114406
5.466666666666667,0.6946583704589973
5.469444444444445,0.6798680559861546
5.472222222222222,0.6647958656139336
5.4750000000000005,0.6494480483301771
5.477777777777778,0.6338309673987068
5.480555555555556,0.6179510977210675
5.483333333333333,0.6018150231520458
5.486111111111112,0.5854294337699357
5.488888888888889,0.5688011231028504
5.491666666666667,0.5519369853120544
5.4944444444444445,0.534844012333664
5.497222222222223,0.517529290979717
5.5,0.5000000000000009
5.502777777777778,0.48226340710566695
5.5055555555555555,0.46432686595605277
5.508333333333334,0.44619781310980194
5.511111111111111,0.4278837649416512
5.513888888888889,0.4093923145260868
5.516666666666667,0.39073112848927183
5.519444444444445,0.371907943830382
5.522222222222222,0.35293056471386824
5.525,0.3338068592337675
5.527777777777778,0.31454475615161426
5.530555555555556,0.29515224160909176
5.533333333333333,0.2756373558170011
5.536111111111111,0.2560081897217049
5.538888888888889,0.23627288165063765
5.541666666666667,0.21643961393809638
5.544444444444444,0.19651660953282774
5.5472222222222225,0.17651212858873389
5.55,0.15643446504022981
5.552777777777778,0.13629194316349055
5.555555555555555,0.1160929141252305
5.558333333333334,0.0958457525202214
5.561111111111111,0.0755588528992097
5.563888888888889,0.05524062628844721
5.566666666666667,0.03489949670249684
5.569444444444445,0.014543897651582751
5.572222222222223,-0.005817731355003722
5.575,-0.02617694830787881
5.577777777777778,-0.04652531219775518
5.580555555555556,-0.06685438651503146
5.583333333333334,-0.08715574274766534
5.586111111111111,-0.10742096387561016
5.5888888888888895,-0.1276416478606004
5.591666666666667,-0.1478094111296122
5.594444444444445,-0.1679158920507815
5.597222222222222,-0.18795275440011214
5.6000000000000005,-0.2079116908177624
5.602777777777778,-0.22778442625225243
5.605555555555556,-0.24756272139139468
5.608333333333333,-0.26723837607826134
5.611111111111112,-0.2868032327110975
5.613888888888889,-0.3062491796254112
5.616666666666667,-0.32556815445716253
5.6194444444444445,-0.3447521474853961
5.622222222222223,-0.363793204953156
5.625,-0.38268343236509034
5.627777777777778,-0.4014149977605924
5.6305555555555555,-0.41998013496090886
5.633333333333334,-0.43837114678907935
5.636111111111111,-0.45658040826116375
5.638888888888889,-0.47460036974764735
5.641666666666667,-0.4924235601034703
5.644444444444445,-0.5100425897656808
5.647222222222222,-0.5274501538171016
5.65,-0.5446390350150314
5.652777777777778,-0.5616021067834938
5.655555555555556,-0.5783323361679896
5.658333333333333,-0.5948227867513409
5.661111111111111,-0.6110666215296018
5.663888888888889,-0.6270571057466603
5.666666666666667,-0.6427876096865403
5.669444444444444,-0.6582516114220668
5.6722222222222225,-0.6734426995189055
5.675,-0.6883545756937559
5.677777777777778,-0.7029810574256656
5.680555555555555,-0.7173160805192903
5.683333333333334,-0.7313537016191733
5.686111111111111,-0.7450881006738437
5.688888888888889,-0.7585135833488709
5.691666666666667,-0.7716245833877236
5.694444444444445,-0.7844156649195766
5.697222222222223,-0.7968815247130558
5.7,-0.8090169943749475
5.702777777777778,-0.820817042493069
5.705555555555556,-0.8322767767222811
5.708333333333334,-0.8433914458128904
5.711111111111111,-0.854156441580528
5.7138888888888895,-0.8645673008167343
5.716666666666667,-0.8746197071393974
5.719444444444445,-0.8843094927823698
5.722222222222222,-0.893632640323413
5.7250000000000005,-0.9025852843498626
5.727777777777778,-0.9111637130612172
5.730555555555556,-0.9193643698080904
5.733333333333333,-0.9271838545667871
5.736111111111112,-0.9346189253489892
5.738888888888889,-0.941666499545877
5.741666666666667,-0.9483236552062018
5.7444444444444445,-0.954587632247733
5.747222222222223,-0.9604558336016074
5.75,-0.9659258262890689
5.752777777777778,-0.9709953424302072
5.7555555555555555,-0.9756622801842145
5.758333333333334,-0.9799247046208304
5.761111111111111,-0.9837808485225586
5.763888888888889,-0.9872291131173745
5.766666666666667,-0.99026806874157
5.769444444444445,-0.992896455432509
5.772222222222222,-0.9951131834510034
5.775,-0.9969173337331285
5.777777777777778,-0.9983081582712684
5.780555555555556,-0.9992850804242447
5.783333333333333,-0.9998476951563913
5.786111111111111,-0.9999957692054863
5.788888888888889,-0.9997292411794617
5.791666666666667,-0.9990482215818577
5.794444444444444,-0.9979529927660075
5.7972222222222225,-0.9964440088179715
5.8,-0.9945218953682736
5.802777777777778,-0.9921874493325082
5.805555555555555,-0.9894416385809441
5.808333333333334,-0.9862856015372304
5.811111111111111,-0.982720646706413
5.813888888888889,-0.9787482521324131
5.816666666666667,-0.9743700647852336
5.819444444444445,-0.9695878998781153
5.822222222222223,-0.9644037401149373
5.825,-0.9588197348681926
5.827777777777778,-0.9528381992878346
5.830555555555556,-0.9464616133414242
5.833333333333334,-0.9396926207859073
5.836111111111111,-0.9325340280715196
5.8388888888888895,-0.9249888031782126
5.841666666666667,-0.9170600743851222
5.844444444444445,-0.908751128973561
5.847222222222222,-0.9000654118641196
5.8500000000000005,-0.891006524188365
5.852777777777778,-0.8815782217958222
5.855555555555556,-0.87178441369676
5.858333333333333,-0.8616291604415254
5.861111111111112,-0.8511166724369978
5.863888888888889,-0.8402513082009659
5.866666666666667,-0.8290375725550404
5.8694444444444445,-0.8174801147569636
5.872222222222223,-0.8055837265729946
5.875,-0.7933533402912328
5.877777777777778,-0.7807940266766551
5.8805555555555555,-0.7679109928687871
5.883333333333334,-0.7547095802227685
5.886111111111111,-0.7411952620948429
5.888888888888889,-0.727373641573046
5.891666666666667,-0.7132504491541818
5.894444444444445,-0.6988315403678981
5.897222222222222,-0.6841228933490011
5.9,-0.6691306063588572
5.902777777777778,-0.6538608952570665
5.905555555555556,-0.6383200909243228
5.908333333333333,-0.6225146366376174
5.911111111111111,-0.6064510853988089
5.913888888888889,-0.5901360972177633
5.916666666666667,-0.5735764363510425
5.919444444444444,-0.5567789684974643
5.9222222222222225,-0.5397506579515103
5.925,-0.5224985647159499
5.927777777777778,-0.5050298415746886
5.930555555555555,-0.4873517311272446
5.933333333333334,-0.46947156278589053
5.936111111111111,-0.451396749736894
5.938888888888889,-0.4331347858669576
5.941666666666667,-0.4146932426562309
5.944444444444445,-0.3960797660391525
5.947222222222223,-0.37730207323438997
5.95,-0.35836794954529716
5.952777777777778,-0.3392852451320454
5.955555555555556,-0.3200618717569697
5.958333333333334,-0.3007057995042685
5.961111111111111,-0.28122505347563
5.9638888888888895,-0.2616277104629402
5.966666666666667,-0.24192189559966842
5.969444444444445,-0.2221157789920943
5.972222222222222,-0.202217572332033
5.9750000000000005,-0.18223552549213967
5.977777777777778,-0.1621779231055638
5.980555555555556,-0.1420530811310459
5.983333333333333,-0.12186934340514516
5.986111111111112,-0.10163507818279668
5.988888888888889,-0.0813586746678573
5.991666666666667,-0.061048539534853015
5.9944444444444445,-0.04071309344359619
5.997222222222223,-0.020360767547891043
6.0,5.3909218387947074e-15
6.002777777777778,0.020360767547901823
6.0055555555555555,0.04071309344359987
6.008333333333334,0.06104853953486378
6.011111111111111,0.08135867466786097
6.013888888888889,0.10163507818280741
6.016666666666667,0.12186934340514881
6.019444444444445,0.14205308113105658
6.022222222222222,0.16217792310556745
6.025,0.18223552549215027
6.027777777777778,0.2022175723320366
6.030555555555556,0.2221157789921048
6.033333333333333,0.24192189559967198
6.036111111111111,0.2616277104629506
6.038888888888889,0.2812250534756335
6.041666666666667,0.3007057995042788
6.044444444444444,0.3200618717569732
6.0472222222222225,0.33928524513205555
6.05,0.3583679495453006
6.052777777777778,0.37730207323439996
6.055555555555555,0.3960797660391559
6.058333333333334,0.41469324265624075
6.061111111111112,0.4331347858669673
6.063888888888889,0.45139674973689725
6.066666666666667,0.46947156278589375
6.069444444444445,0.48735173112724783
6.072222222222223,0.5050298415746979
6.075,0.522498564715953
6.077777777777778,0.5397506579515194
6.080555555555556,0.5567789684974674
6.083333333333334,0.5735764363510514
6.086111111111111,0.5901360972177662
6.0888888888888895,0.6064510853988174
6.091666666666667,0.6225146366376202
6.094444444444445,0.6383200909243312
6.097222222222222,0.6538608952570693
6.1000000000000005,0.66913060635886
6.102777777777778,0.6841228933490038
6.105555555555556,0.6988315403679058
6.108333333333333,0.7132504491541843
6.111111111111112,0.7273736415730534
6.113888888888889,0.7411952620948454
6.116666666666667,0.7547095802227756
6.1194444444444445,0.7679109928687894
6.122222222222223,0.7807940266766618
6.125,0.793353340291235
6.127777777777778,0.805583726573001
6.1305555555555555,0.8174801147569657
6.133333333333334,0.8290375725550425
6.136111111111111,0.8402513082009679
6.138888888888889,0.8511166724370035
6.141666666666667,0.8616291604415273
6.144444444444445,0.8717844136967652
6.147222222222222,0.881578221795824
6.15,0.8910065241883699
6.152777777777778,0.9000654118641213
6.155555555555556,0.9087511289735656
6.158333333333333,0.9170600743851236
6.161111111111111,0.9249888031782167
6.163888888888889,0.9325340280715211
6.166666666666667,0.939692620785911
6.169444444444444,0.9464616133414253
6.1722222222222225,0.952838199287838
6.175,0.9588197348681936
6.177777777777778,0.9644037401149402
6.180555555555555,0.9695878998781162
6.183333333333334,0.974370064785236
6.186111111111112,0.9787482521324153
6.188888888888889,0.9827206467064137
6.191666666666667,0.9862856015372322
6.194444444444445,0.9894416385809446
6.197222222222223,0.9921874493325096
6.2,0.9945218953682741
6.202777777777778,0.9964440088179723
6.205555555555556,0.9979529927660078
6.208333333333334,0.9990482215818581
6.211111111111111,0.9997292411794618
6.2138888888888895,0.9999957692054863
6.216666666666667,0.9998476951563912
6.219444444444445,0.9992850804242442
6.222222222222222,0.9983081582712682
6.2250000000000005,0.9969173337331276
6.227777777777778,0.9951131834510031
6.230555555555556,0.9928964554325086
6.233333333333333,0.9902680687415696
6.236111111111112,0.9872291131173727
6.238888888888889,0.983780848522558
6.241666666666667,0.9799247046208283
6.2444444444444445,0.9756622801842136
6.247222222222223,0.9709953424302046
6.25,0.9659258262890679
6.252777777777778,0.9604558336016044
6.2555555555555555,0.9545876322477319
6.258333333333334,0.9483236552061983
6.261111111111111,0.9416664995458758
6.263888888888889,0.9346189253489878
6.266666666666667,0.9271838545667856
6.269444444444445,0.9193643698080862
6.272222222222222,0.9111637130612157
6.275,0.902585284349858
6.277777777777778,0.8936326403234114
6.280555555555556,0.8843094927823648
6.283333333333333,0.8746197071393955
6.286111111111111,0.8645673008167288
6.288888888888889,0.8541564415805261
6.291666666666667,0.8433914458128846
6.294444444444444,0.832276776722279
6.2972222222222225,0.8208170424930669
6.3,0.8090169943749453
6.302777777777778,0.7968815247130493
6.305555555555555,0.7844156649195744
6.308333333333334,0.7716245833877168
6.311111111111112,0.7585135833488638
6.313888888888889,0.7450881006738412
6.316666666666667,0.731353701619166
6.319444444444445,0.7173160805192879
6.322222222222223,0.702981057425658
6.325,0.6883545756937532
6.327777777777778,0.6734426995188975
6.330555555555556,0.658251611422064
6.333333333333334,0.6427876096865319
6.336111111111111,0.6270571057466574
6.3388888888888895,0.6110666215295932
6.341666666666667,0.594822786751338
6.344444444444445,0.5783323361679809
6.347222222222222,0.5616021067834907
6.3500000000000005,0.5446390350150224
6.352777777777778,0.5274501538170985
6.355555555555556,0.5100425897656716
6.358333333333333,0.4924235601034671
6.361111111111112,0.47460036974763786
6.363888888888889,0.4565804082611605
6.366666666666667,0.43837114678906963
6.3694444444444445,0.4199801349609055
6.372222222222223,0.40141499776058254
6.375,0.38268343236508695
6.377777777777778,0.36379320495314593
6.3805555555555555,0.3447521474853926
6.383333333333334,0.3255681544571523
6.386111111111111,0.3062491796254077
6.388888888888889,0.28680323271108715
6.391666666666667,0.26723837607825784
6.394444444444445,0.24756272139138424
6.397222222222222,0.22778442625224884
6.4,0.20791169081775185
6.402777777777778,0.18795275440010853
6.405555555555556,0.16791589205077087
6.408333333333333,0.14780941112960858
6.411111111111111,0.12764164786058968
6.413888888888889,0.10742096387560651
6.416666666666667,0.0871557427476546
6.419444444444444,0.06685438651502779
6.4222222222222225,0.04652531219774441
6.425,0.026176948307875137
6.427777777777778,0.00581773135499294
6.430555555555555,-0.014543897651586427
6.433333333333334,-0.03489949670250762
6.436111111111112,-0.05524062628845798
6.438888888888889,-0.07555885289921337
6.441666666666667,-0.09584575252023213
6.444444444444445,-0.11609291412523415
6.447222222222223,-0.13629194316350124
6.45,-0.15643446504023342
6.452777777777778,-0.1765121285887445
6.455555555555556,-0.19651660953283134
6.458333333333334,-0.2164396139381069
6.461111111111111,-0.23627288165064123
6.4638888888888895,-0.25600818972170847
6.466666666666667,-0.2756373558170046
6.469444444444445,-0.29515224160910203
6.472222222222222,-0.31454475615161775
6.4750000000000005,-0.3338068592337777
6.477777777777778,-0.3529305647138717
6.480555555555556,-0.37190794383039205
6.483333333333333,-0.3907311284892752
6.486111111111112,-0.40939231452609665
6.488888888888889,-0.42788376494165453
6.491666666666667,-0.4461978131098116
6.4944444444444445,-0.464326865956056
6.497222222222223,-0.48226340710567017
6.5,-0.500000000000004
6.502777777777778,-0.5175292909797262
6.5055555555555555,-0.5348440123336671
6.508333333333334,-0.5519369853120634
6.511111111111111,-0.5688011231028534
6.513888888888889,-0.5854294337699444
6.516666666666667,-0.6018150231520487
6.519444444444445,-0.6179510977210759
6.522222222222222,-0.6338309673987097
6.525,-0.6494480483301853
6.527777777777778,-0.6647958656139362
6.530555555555556,-0.6798680559861625
6.533333333333333,-0.6946583704589999
6.536111111111111,-0.7091606769114482
6.538888888888889,-0.7233689626317096
6.541666666666667,-0.7372773368101275
6.544444444444444,-0.7508800329814997
6.5472222222222225,-0.7641714114159155
6.55,-0.7771459614569707
6.552777777777778,-0.7897983038065449
6.555555555555556,-0.802123192755047
6.558333333333334,-0.8141155183563199
6.561111111111112,-0.8257703085462564
6.563888888888889,-0.8370827312042107
6.566666666666667,-0.8480480961564312
6.569444444444445,-0.8586618571206159
6.572222222222223,-0.8689196135908344
6.575,-0.8788171126619674
6.577777777777778,-0.8883502507930073
6.580555555555556,-0.897515075508374
6.583333333333334,-0.9063077870366524
6.586111111111111,-0.9147247398859677
6.5888888888888895,-0.9227624443554441
6.591666666666667,-0.9304175679820246
6.594444444444445,-0.9376869369221459
6.597222222222222,-0.9445675372676067
6.6000000000000005,-0.9510565162951563
6.602777777777778,-0.9571511836492401
6.605555555555556,-0.9628490124574396
6.608333333333333,-0.9681476403781086
6.611111111111112,-0.9730448705798252
6.613888888888889,-0.977538672652192
6.616666666666667,-0.9816271834476649
6.6194444444444445,-0.9853087078540095
6.622222222222223,-0.9885817194971122
6.625,-0.9914448613738103
6.627777777777778,-0.9938969464145202
6.6305555555555555,-0.9959369579753933
6.633333333333334,-0.9975640502598248
6.636111111111111,-0.9987775486691227
6.638888888888889,-0.9995769500822007
6.641666666666667,-0.9999619230641713
6.644444444444445,-0.9999323080037622
6.647222222222222,-0.9994881171794908
6.65,-0.9986295347545737
6.652777777777778,-0.9973569167005724
6.655555555555556,-0.9956707906498042
6.658333333333333,-0.9935718556765877
6.661111111111111,-0.9910609820073986
6.663888888888889,-0.9881392106600754
6.666666666666667,-0.9848077530122069
6.669444444444444,-0.9810679902988921
6.6722222222222225,-0.9769214730400698
6.675,-0.9723699203976763
6.677777777777778,-0.9674152194628629
6.680555555555556,-0.9620594244736113
6.683333333333334,-0.9563047559630347
6.686111111111112,-0.9501535998387294
6.688888888888889,-0.9436085063935831
6.691666666666667,-0.9366721892483961
6.694444444444445,-0.9293475242268224
6.697222222222223,-0.9216375481630199
6.7,-0.9135454576425985
6.702777777777778,-0.9050746076772663
6.705555555555556,-0.8962285103138614
6.708333333333334,-0.8870108331782184
6.711111111111111,-0.8774253979545804
6.7138888888888895,-0.8674761788010895
6.716666666666667,-0.8571673007021114
6.719444444444445,-0.8465030377579736
6.722222222222222,-0.8354878114129363
6.7250000000000005,-0.8241261886220138
6.727777777777778,-0.8124228799575256
6.730555555555556,-0.8003827376560583
6.733333333333333,-0.788010753606719
6.736111111111112,-0.775312057281461
6.738888888888889,-0.7622919136084157
6.741666666666667,-0.748955720788998
6.7444444444444445,-0.7353090080598272
6.747222222222223,-0.7213574334002478
6.75,-0.707106781186547
6.752777777777778,-0.6925629597936915
6.7555555555555555,-0.6777319991457327
6.758333333333334,-0.6626200482157357
6.761111111111111,-0.6472333724764284
6.763888888888889,-0.6315783513024914
6.766666666666667,-0.6156614753256553
6.769444444444445,-0.5994893437436385
6.772222222222222,-0.5830686615841327
6.775,-0.5664062369248284
6.777777777777778,-0.5495089780708051
6.780555555555556,-0.5323838906902753
6.783333333333333,-0.5150380749100544
6.786111111111111,-0.49747872237177415
6.788888888888889,-0.4797131132502476
6.791666666666667,-0.4617486132350328
6.794444444444444,-0.4435926704766322
6.7972222222222225,-0.4252528124984366
6.8,-0.40673664307579765
6.802777777777778,-0.38805183908344765
6.805555555555556,-0.3692061473126765
6.808333333333334,-0.35020738125946343
6.811111111111112,-0.3310634178849513
6.813888888888889,-0.3117821943496751
6.816666666666667,-0.2923717047227311
6.819444444444445,-0.27283999666745945
6.822222222222223,-0.25319516810479736
6.825,-0.23344536385590514
6.827777777777778,-0.21359877226523696
6.830555555555556,-0.1936636218056702
6.833333333333334,-0.1736481776669216
6.836111111111111,-0.15356073832878162
6.8388888888888895,-0.13340963212050522
6.841666666666667,-0.11320321376790342
6.844444444444445,-0.09294986092938604
6.847222222222222,-0.07265797072260864
6.8500000000000005,-0.052335956242938984
6.852777777777778,-0.031992243075412055
6.855555555555556,-0.011635265801393513
6.858333333333333,0.00872653549837321
6.861111111111112,0.02908471874312066
6.863888888888889,0.04943084335209113
6.866666666666667,0.06975647374413319
6.8694444444444445,0.09005318283504074
6.872222222222223,0.11031255553151822
6.875,0.1305261922200539
6.877777777777778,0.15068571224948826
6.8805555555555555,0.17078275740560775
6.883333333333334,0.1908089953765486
6.886111111111111,0.21075612320734913
6.888888888888889,0.2306158707424426
6.891666666666667,0.2503800040544398
6.894444444444445,0.2700403288580087
6.897222222222222,0.2895886939071748
6.9,0.309016994374954
6.902777777777778,0.3283171752135636
6.905555555555556,0.3474812344941366
6.908333333333333,0.3665012267242985
6.911111111111111,0.38536926614245215
6.913888888888889,0.4040775299871917
6.916666666666667,0.42261826174070205
6.919444444444444,0.4409837743445886
6.9222222222222225,0.459166453387013
6.925,0.477158760259606
6.927777777777778,0.49495323528306046
6.930555555555556,0.5125425007998738
6.933333333333334,0.52991926423321
6.936111111111112,0.5470763211104219
6.938888888888889,0.5640065580500182
6.941666666666667,0.5807029557109458
6.944444444444445,0.5971585917027887
6.947222222222223,0.6133666434558639
6.95,0.629320391049839
6.952777777777778,0.6450132199998819
6.955555555555556,0.6604386239990081
6.958333333333334,0.6755902076156627
6.961111111111111,0.6904616889452542
6.9638888888888895,0.7050469022146769
6.966666666666667,0.7193398003386545
6.969444444444445,0.7333344574269041
6.972222222222222,0.7470250712409984
6.9750000000000005,0.7604059656000351
6.977777777777778,0.7734715927339654
6.980555555555556,0.7862165355837574
6.983333333333333,0.7986355100472934
6.986111111111112,0.8107233671702144
6.988888888888889,0.822475095280662
6.991666666666667,0.8338858220671695
6.9944444444444445,0.844950816598713
6.997222222222223,0.8556654912861893
7.0,0.8660254037844406
7.002777777777778,0.8760262588340819
7.0055555555555555,0.8856639100423072
7.008333333333334,0.8949343616020274
7.011111111111111,0.903833769948521
7.013888888888889,0.9123584453530158
7.016666666666667,0.9205048534524403
7.019444444444445,0.9282696167148077
7.022222222222222,0.9356495158395309
7.025,0.9426414910921789
7.027777777777778,0.9492426435730352
7.030555555555556,0.9554502364190043
7.033333333333333,0.9612616959383197
7.036111111111111,0.9666746126776155
7.038888888888889,0.9716867424208806
7.041666666666667,0.9762960071199344
7.044444444444444,0.9805004957559793
7.0472222222222225,0.9842984651319302
7.050000000000001,0.9876883405951387
7.052777777777778,0.9906687166902562
7.055555555555556,0.9932383577419436
7.058333333333334,0.9953961983671789
7.061111111111112,0.9971413439169782
7.063888888888889,0.9984730708473116
7.066666666666667,0.9993908270190961
7.069444444444445,0.9998942319271076
7.072222222222223,0.9999830768577441
7.075,0.9996573249755571
7.077777777777778,0.9989171113385242
7.080555555555556,0.9977627428420541
7.083333333333334,0.9961946980917451
7.086111111111111,0.9942136272049561
7.0888888888888895,0.9918203515412612
7.091666666666667,0.9890158633619158
7.094444444444445,0.9858013254184581
7.097222222222222,0.9821780704706298
7.1000000000000005,0.9781476007338039
7.102777777777778,0.97371158725617
7.105555555555556,0.9688718692258991
7.108333333333333,0.9636304532086223
7.111111111111112,0.9579895123154873
7.113888888888889,0.9519513853021928
7.116666666666667,0.9455185755993155
7.1194444444444445,0.9386937502743955
7.122222222222223,0.9314797389261414
7.125,0.9238795325112846
7.127777777777778,0.9158962821045077
7.1305555555555555,0.9075332975920019
7.133333333333334,0.8987940462991639
7.136111111111111,0.8896821515530504
7.138888888888889,0.8802013911801084
7.141666666666667,0.8703556959398989
7.144444444444445,0.8601491478953631
7.147222222222222,0.8495859787204105
7.15,0.8386705679454224
7.152777777777778,0.8274074411415112
7.155555555555556,0.8158012680441711
7.158333333333333,0.8038568606172146
7.161111111111111,0.7915791710576989
7.163888888888889,0.7789732897427337
7.166666666666667,0.7660444431189741
7.169444444444444,0.752797991535747
7.1722222222222225,0.7392394270225929
7.175000000000001,0.7253743710122824
7.177777777777778,0.7112085720101349
7.180555555555556,0.6967479032106505
7.183333333333334,0.681998360062497
7.186111111111112,0.6669660577827325
7.188888888888889,0.6516572288214547
7.191666666666667,0.6360782202777613
7.194444444444445,0.6202354912682551
7.197222222222223,0.6041356102490488
7.2,0.587785252292469
7.202777777777778,0.5711911963195221
7.205555555555556,0.5543603222893684
7.208333333333334,0.5372996083468182
7.211111111111111,0.5200161279292135
7.2138888888888895,0.5025170468337053
7.216666666666667,0.48480962024633617
7.219444444444445,0.46690118973396244
7.222222222222222,0.4487991802004625
7.2250000000000005,0.4305110968082865
7.227777777777778,0.4120445218668634
7.230555555555556,0.3934071116888575
7.233333333333333,0.3746065934159083
7.236111111111112,0.35565076181487004
7.238888888888889,0.33654747604612384
7.241666666666667,0.3173046564050868
7.2444444444444445,0.29793028103848074
7.247222222222223,0.2784323826365077
7.25,0.25881904510252074
7.252777777777778,0.23909840020135154
7.2555555555555555,0.2192786241879046
7.258333333333334,0.19936793441718872
7.261111111111111,0.17937458593745303
7.263888888888889,0.1593068680675154
7.266666666666667,0.1391731009600624
7.269444444444445,0.11898163215201951
7.272222222222222,0.09874083310368621
7.275,0.07845909572784038
7.277777777777778,0.058144828910475475
7.280555555555556,0.037806455024387675
7.283333333333333,0.017452406437284507
7.286111111111111,-0.0029088779843638164
7.288888888888889,-0.02326895637406108
7.291666666666667,-0.04361938736534363
7.294444444444444,-0.06395173359158904
7.2972222222222225,-0.08425756518420902
7.300000000000001,-0.10452846326766259
7.302777777777778,-0.12475602344997551
7.305555555555556,-0.14493185930725447
7.308333333333334,-0.16504760586068118
7.311111111111112,-0.18509492304472097
7.313888888888889,-0.20506549916488964
7.316666666666667,-0.22495105434386997
7.319444444444445,-0.24474334395432465
7.322222222222223,-0.2644341620372058
7.325,-0.284015344703929
7.327777777777778,-0.3034787735211797
7.330555555555556,-0.32281637887683384
7.333333333333334,-0.34202014332567643
7.336111111111111,-0.361082104913418
7.3388888888888895,-0.3799943604778052
7.341666666666667,-0.3987490689252486
7.344444444444445,-0.4173384544818229
7.347222222222222,-0.4357548099170805
7.3500000000000005,-0.45399049973955047
7.352777777777778,-0.4720379633623912
7.355555555555556,-0.4898897182380894
7.358333333333333,-0.507538362960709
7.361111111111112,-0.5249765803345674
7.363888888888889,-0.5421971404079606
7.366666666666667,-0.5591929034707528
7.3694444444444445,-0.5759568230144857
7.372222222222223,-0.5924819486539354
7.375,-0.6087614290087219
7.377777777777778,-0.6247885145439637
7.3805555555555555,-0.6405565603686153
7.383333333333334,-0.6560590289905096
7.386111111111111,-0.6712894930267828
7.388888888888889,-0.6862416378687348
7.391666666666667,-0.7009092642998542
7.394444444444445,-0.7152862910660568
7.397222222222222,-0.7293667573969875
7.4,-0.7431448254773984
7.402777777777778,-0.7566147828674942
7.405555555555556,-0.7697710448713708
7.408333333333333,-0.7826081568524142
7.411111111111111,-0.7951207964948499
7.413888888888889,-0.8073037760103594
7.416666666666667,-0.819152044288993
7.419444444444444,-0.8306606889933443
7.4222222222222225,-0.8418249385952579
7.425000000000001,-0.8526401643540978
7.427777777777778,-0.8631018822358396
7.430555555555556,-0.8732057547722003
7.433333333333334,-0.8829475928589293
7.436111111111112,-0.8923233574926591
7.438888888888889,-0.9013291614454638
7.441666666666667,-0.909961270876546
7.444444444444445,-0.918216106880275
7.447222222222223,-0.9260902469700399
7.45,-0.9335804264972022
7.452777777777778,-0.9406835400046535
7.455555555555556,-0.9473966425143315
7.458333333333334,-0.9537169507482298
7.461111111111111,-0.9596418442823509
7.4638888888888895,-0.9651688666331516
7.466666666666667,-0.9702957262759975
7.469444444444445,-0.9750202975952522
7.472222222222222,-0.979340621765552
7.4750000000000005,-0.9832549075639556
7.477777777777778,-0.9867615321125794
7.480555555555556,-0.9898590415514604
7.483333333333333,-0.9925461516413221
7.486111111111112,-0.9948217482960333
7.488888888888889,-0.9966848880445065
7.491666666666667,-0.9981347984218675
7.4944444444444445,-0.9991708782897215
7.497222222222223,-0.9997926980853886
7.5,-1.0
7.502777777777778,-0.9997926980853883
7.5055555555555555,-0.9991708782897212
7.508333333333334,-0.9981347984218667
7.511111111111111,-0.9966848880445061
7.513888888888889,-0.9948217482960328
7.516666666666667,-0.9925461516413221
7.519444444444445,-0.9898590415514595
7.522222222222222,-0.9867615321125784
7.525,-0.9832549075639532
7.527777777777778,-0.9793406217655508
7.530555555555556,-0.9750202975952492
7.533333333333333,-0.9702957262759959
7.536111111111111,-0.965168866633148
7.538888888888889,-0.959641844282349
7.541666666666667,-0.9537169507482258
7.544444444444445,-0.9473966425143272
7.5472222222222225,-0.9406835400046513
7.550000000000001,-0.9335804264971999
7.552777777777778,-0.9260902469700375
7.555555555555556,-0.9182161068802724
7.558333333333334,-0.9099612708765404
7.561111111111112,-0.901329161445458
7.563888888888889,-0.892323357492653
7.566666666666667,-0.882947592858923
7.569444444444445,-0.8732057547721938
7.572222222222223,-0.8631018822358328
7.575,-0.8526401643540908
7.577777777777778,-0.8418249385952544
7.580555555555556,-0.8306606889933448
7.583333333333334,-0.8191520442889894
7.586111111111111,-0.8073037760103599
7.5888888888888895,-0.7951207964948417
7.591666666666667,-0.7826081568524104
7.594444444444445,-0.7697710448713623
7.597222222222222,-0.75661478286749
7.6000000000000005,-0.7431448254773894
7.602777777777778,-0.7293667573969832
7.605555555555556,-0.7152862910660474
7.608333333333333,-0.7009092642998497
7.611111111111112,-0.6862416378687303
7.613888888888889,-0.6712894930267832
7.616666666666667,-0.6560590289905048
7.6194444444444445,-0.6405565603686159
7.622222222222223,-0.6247885145439531
7.625,-0.6087614290087169
7.627777777777778,-0.5924819486539246
7.6305555555555555,-0.5759568230144805
7.633333333333334,-0.5591929034707416
7.636111111111111,-0.5421971404079552
7.638888888888889,-0.524976580334556
7.641666666666667,-0.5075383629607035
7.644444444444445,-0.48988971823808386
7.647222222222222,-0.47203796336239184
7.65,-0.4539904997395448
7.652777777777778,-0.4357548099170747
7.655555555555556,-0.4173384544818106
7.658333333333333,-0.39874906892524276
7.661111111111111,-0.3799943604777928
7.663888888888889,-0.3610821049134121
7.666666666666667,-0.3420201433256637
7.669444444444445,-0.3228163788768211
7.6722222222222225,-0.30347877352116687
7.675000000000001,-0.28401534470391604
7.677777777777778,-0.2644341620371997
7.680555555555556,-0.24474334395431846
7.683333333333334,-0.22495105434386378
7.686111111111112,-0.20506549916488342
7.688888888888889,-0.1850949230447077
7.691666666666667,-0.16504760586066788
7.694444444444445,-0.14493185930724115
7.697222222222223,-0.12475602344996213
7.7,-0.10452846326764918
7.702777777777778,-0.08425756518419558
7.705555555555556,-0.06395173359158268
7.708333333333334,-0.043619387365330164
7.711111111111111,-0.02326895637405471
7.7138888888888895,-0.0029088779843574443
7.716666666666667,0.017452406437283775
7.719444444444445,0.03780645502439404
7.722222222222222,0.05814482891048184
7.7250000000000005,0.07845909572785381
7.727777777777778,0.09874083310369255
7.730555555555556,0.11898163215203289
7.733333333333333,0.13917310096006874
7.736111111111112,0.1593068680675287
7.738888888888889,0.1793745859374593
7.741666666666667,0.19936793441720194
7.7444444444444445,0.21927862418790392
7.747222222222223,0.23909840020135772
7.75,0.2588190451025201
7.752777777777778,0.2784323826365139
7.7555555555555555,0.2979302810384868
7.758333333333334,0.31730465640509964
7.761111111111111,0.33654747604612983
7.763888888888889,0.3556507618148826
7.766666666666667,0.3746065934159142
7.769444444444445,0.3934071116888699
7.772222222222222,0.41204452186686924
7.775,0.43051109680829863
7.777777777777778,0.44879918020046183
7.780555555555556,0.4669011897339681
7.783333333333333,0.4848096202463355
7.786111111111111,0.502517046833717
7.788888888888889,0.5200161279292189
7.791666666666667,0.5372996083468297
7.794444444444445,0.5543603222893796
7.7972222222222225,0.5711911963195332
7.800000000000001,0.5877852522924799
7.802777777777778,0.6041356102490596
7.805555555555556,0.6202354912682656
7.808333333333334,0.6360782202777662
7.811111111111112,0.6516572288214596
7.813888888888889,0.6669660577827372
7.816666666666667,0.6819983600625017
7.819444444444445,0.6967479032106603
7.822222222222223,0.7112085720101443
7.825,0.7253743710122916
7.827777777777778,0.7392394270226019
7.830555555555556,0.7527979915357511
7.833333333333334,0.7660444431189828
7.836111111111111,0.7789732897427377
7.8388888888888895,0.7915791710577071
7.841666666666667,0.8038568606172184
7.844444444444445,0.8158012680441747
7.847222222222222,0.8274074411415109
7.8500000000000005,0.8386705679454258
7.852777777777778,0.8495859787204139
7.855555555555556,0.86014914789537
7.858333333333333,0.8703556959399021
7.861111111111112,0.8802013911801149
7.863888888888889,0.8896821515530534
7.866666666666667,0.8987940462991698
7.8694444444444445,0.9075332975920045
7.872222222222223,0.9158962821045131
7.875,0.9238795325112871
7.877777777777778,0.9314797389261437
7.8805555555555555,0.9386937502743952
7.883333333333334,0.9455185755993176
7.886111111111111,0.9519513853021947
7.888888888888889,0.9579895123154912
7.891666666666667,0.9636304532086241
7.894444444444445,0.9688718692259024
7.897222222222222,0.9737115872561715
7.9,0.9781476007338068
7.902777777777778,0.982178070470631
7.905555555555556,0.9858013254184603
7.908333333333333,0.9890158633619168
7.911111111111111,0.991820351541262
7.913888888888889,0.994213627204956
7.916666666666667,0.9961946980917457
7.919444444444445,0.9977627428420546
7.9222222222222225,0.9989171113385249
7.925000000000001,0.9996573249755576
7.927777777777778,0.9999830768577442
7.930555555555556,0.9998942319271074
7.933333333333334,0.9993908270190955
7.936111111111112,0.998473070847311
7.938888888888889,0.9971413439169772
7.941666666666667,0.9953961983671782
7.944444444444445,0.9932383577419428
7.947222222222223,0.9906687166902554
7.95,0.9876883405951377
7.952777777777778,0.9842984651319278
7.955555555555556,0.9805004957559781
7.958333333333334,0.9762960071199314
7.961111111111111,0.971686742420879
7.9638888888888895,0.966674612677612
7.966666666666667,0.9612616959383179
7.969444444444445,0.9554502364190003
7.972222222222222,0.9492426435730332
7.9750000000000005,0.9426414910921768
7.977777777777778,0.9356495158395312
7.980555555555556,0.9282696167148052
7.983333333333333,0.9205048534524406
7.986111111111112,0.9123584453530104
7.988888888888889,0.9038337699485183
7.991666666666667,0.8949343616020214
7.9944444444444445,0.8856639100423043
7.997222222222223,0.8760262588340755
8.0,0.8660254037844374
8.002777777777778,0.8556654912861823
8.005555555555556,0.8449508165987057
8.008333333333333,0.8338858220671699
8.011111111111111,0.8224750952806624
8.01388888888889,0.8107233671702108
8.016666666666667,0.7986355100472895
8.019444444444444,0.7862165355837535
8.022222222222222,0.7734715927339614
8.025,0.7604059656000264
8.027777777777779,0.7470250712409894
8.030555555555555,0.7333344574268997
8.033333333333333,0.7193398003386502
8.036111111111111,0.7050469022146674
8.03888888888889,0.6904616889452444
8.041666666666668,0.6755902076156528
8.044444444444444,0.6604386239990087
8.047222222222222,0.645013219999877
8.05,0.629320391049834
8.052777777777779,0.6133666434558532
8.055555555555555,0.5971585917027836
8.058333333333334,0.5807029557109349
8.061111111111112,0.564006558050007
8.06388888888889,0.5470763211104046
8.066666666666666,0.5299192642332046
8.069444444444445,0.5125425007998623
8.072222222222223,0.4949532352830488
8.075000000000001,0.4771587602596004
8.077777777777778,0.4591664533870137
8.080555555555556,0.44098377434458924
8.083333333333334,0.4226182617406963
8.086111111111112,0.4040775299871794
8.088888888888889,0.3853692661424463
8.091666666666667,0.3665012267242926
8.094444444444445,0.347481234494124
8.097222222222223,0.32831717521355086
8.1,0.30901699437494795
8.102777777777778,0.2895886939071687
8.105555555555556,0.2700403288579957
8.108333333333334,0.25038000405443356
8.11111111111111,0.23061587074244333
8.113888888888889,0.21075612320734985
8.116666666666667,0.19080899537654233
8.119444444444445,0.17078275740559448
8.122222222222222,0.15068571224948196
8.125,0.13052619222004758
8.127777777777778,0.11031255553150483
8.130555555555556,0.09005318283502732
8.133333333333333,0.06975647374412683
8.136111111111111,0.049430843352084766
8.13888888888889,0.02908471874310719
8.141666666666667,0.008726535498366838
8.144444444444444,-0.011635265801392779
8.147222222222222,-0.03199224307541132
8.15,-0.052335956242952446
8.152777777777779,-0.07265797072262208
8.155555555555555,-0.09294986092939238
8.158333333333333,-0.11320321376790975
8.161111111111111,-0.13340963212051857
8.16388888888889,-0.15356073832879494
8.166666666666668,-0.17364817766694185
8.169444444444444,-0.19366362180567645
8.172222222222222,-0.21359877226524318
8.175,-0.23344536385591133
8.177777777777779,-0.2531951681048104
8.180555555555555,-0.27283999666745873
8.183333333333334,-0.29237170472274404
8.186111111111112,-0.3117821943496879
8.18888888888889,-0.33106341788497073
8.191666666666666,-0.3502073812594694
8.194444444444445,-0.369206147312689
8.197222222222223,-0.3880518390834601
8.200000000000001,-0.40673664307581
8.202777777777778,-0.4252528124984424
8.205555555555556,-0.4435926704766379
8.208333333333334,-0.46174861323503846
8.211111111111112,-0.47971311325025323
8.213888888888889,-0.4974787223717735
8.216666666666667,-0.5150380749100599
8.219444444444445,-0.5323838906902866
8.222222222222223,-0.5495089780708163
8.225,-0.5664062369248337
8.227777777777778,-0.583068661584138
8.230555555555556,-0.5994893437436493
8.233333333333334,-0.615661475325666
8.23611111111111,-0.6315783513024963
8.238888888888889,-0.6472333724764333
8.241666666666667,-0.6626200482157405
8.244444444444445,-0.6777319991457373
8.247222222222222,-0.6925629597936962
8.25,-0.7071067811865516
8.252777777777778,-0.7213574334002572
8.255555555555556,-0.7353090080598363
8.258333333333333,-0.7489557207890022
8.261111111111111,-0.7622919136084199
8.26388888888889,-0.7753120572814695
8.266666666666667,-0.7880107536067273
8.269444444444444,-0.8003827376560622
8.272222222222222,-0.8124228799575293
8.275,-0.8241261886220175
8.277777777777779,-0.8354878114129397
8.280555555555555,-0.8465030377579771
8.283333333333333,-0.8571673007021147
8.286111111111111,-0.8674761788010963
8.28888888888889,-0.877425397954587
8.291666666666668,-0.8870108331782278
8.294444444444444,-0.8962285103138642
8.297222222222222,-0.905074607677272
8.3,-0.9135454576426041
8.302777777777779,-0.9216375481630279
8.305555555555555,-0.9293475242268222
8.308333333333334,-0.9366721892483983
8.311111111111112,-0.9436085063935852
8.31388888888889,-0.9501535998387336
8.316666666666666,-0.9563047559630365
8.319444444444445,-0.962059424473615
8.322222222222223,-0.9674152194628663
8.325000000000001,-0.9723699203976794
8.327777777777778,-0.9769214730400712
8.330555555555556,-0.9810679902988934
8.333333333333334,-0.9848077530122092
8.336111111111112,-0.9881392106600775
8.338888888888889,-0.9910609820073984
8.341666666666667,-0.9935718556765877
8.344444444444445,-0.9956707906498048
8.347222222222223,-0.9973569167005728
8.35,-0.998629534754574
8.352777777777778,-0.999488117179491
8.355555555555556,-0.9999323080037623
8.358333333333334,-0.9999619230641712
8.36111111111111,-0.9995769500822006
8.363888888888889,-0.9987775486691225
8.366666666666667,-0.9975640502598239
8.369444444444445,-0.9959369579753921
8.372222222222222,-0.9938969464145203
8.375,-0.9914448613738104
8.377777777777778,-0.9885817194971113
8.380555555555556,-0.9853087078540084
8.383333333333333,-0.9816271834476636
8.386111111111111,-0.9775386726521906
8.38888888888889,-0.9730448705798221
8.391666666666667,-0.9681476403781052
8.394444444444444,-0.9628490124574378
8.397222222222222,-0.9571511836492382
8.4,-0.9510565162951521
8.402777777777779,-0.9445675372676022
8.405555555555555,-0.9376869369221461
8.408333333333333,-0.9304175679820248
8.411111111111111,-0.9227624443554416
8.41388888888889,-0.9147247398859651
8.416666666666668,-0.9063077870366467
8.419444444444444,-0.8975150755083711
8.422222222222222,-0.8883502507930011
8.425,-0.8788171126619609
8.427777777777779,-0.8689196135908241
8.430555555555555,-0.8586618571206127
8.433333333333334,-0.848048096156424
8.436111111111112,-0.8370827312042034
8.43888888888889,-0.8257703085462488
8.441666666666666,-0.8141155183563203
8.444444444444445,-0.8021231927550432
8.447222222222223,-0.789798303806541
8.450000000000001,-0.7771459614569621
8.452777777777778,-0.7641714114159114
8.455555555555556,-0.7508800329814956
8.458333333333334,-0.7372773368101184
8.461111111111112,-0.7233689626317003
8.463888888888889,-0.7091606769114437
8.466666666666667,-0.6946583704589953
8.469444444444445,-0.6798680559861526
8.472222222222223,-0.6647958656139316
8.475,-0.6494480483301859
8.477777777777778,-0.6338309673987103
8.480555555555556,-0.6179510977210709
8.483333333333334,-0.601815023152038
8.48611111111111,-0.5854294337699393
8.488888888888889,-0.5688011231028481
8.491666666666667,-0.551936985312052
8.494444444444445,-0.5348440123336557
8.497222222222222,-0.5175292909797208
8.5,-0.4999999999999985
8.502777777777778,-0.48226340710566457
8.505555555555556,-0.4643268659560504
8.508333333333333,-0.44619781310981227
8.511111111111111,-0.4278837649416552
8.51388888888889,-0.4093923145260843
8.516666666666667,-0.39073112848926284
8.519444444444444,-0.3719079438303861
8.522222222222222,-0.3529305647138657
8.525,-0.333806859233765
8.527777777777779,-0.314544756151605
8.530555555555555,-0.295152241609096
8.533333333333333,-0.2756373558169985
8.536111111111111,-0.2560081897217023
8.53888888888889,-0.23627288165063504
8.541666666666668,-0.21643961393809374
8.544444444444444,-0.19651660953283207
8.547222222222222,-0.17651212858873122
8.55,-0.15643446504022013
8.552777777777779,-0.13629194316348084
8.555555555555555,-0.11609291412522782
8.558333333333334,-0.09584575252021871
8.561111111111112,-0.07555885289919993
8.56388888888889,-0.05524062628843743
8.566666666666666,-0.03489949670250125
8.569444444444445,-0.014543897651580056
8.572222222222223,0.0058177313549993125
8.575000000000001,0.026176948307881507
8.577777777777778,0.04652531219775077
8.580555555555556,0.06685438651503416
8.583333333333334,0.08715574274766802
8.586111111111112,0.1074209638756199
8.588888888888889,0.127641647860596
8.591666666666667,0.14780941112961488
8.594444444444445,0.16791589205078417
8.597222222222223,0.18795275440012174
8.6,0.2079116908177581
8.602777777777778,0.22778442625225506
8.605555555555556,0.2475627213913904
8.608333333333334,0.26723837607826395
8.61111111111111,0.28680323271109326
8.613888888888889,0.30624917962541376
8.616666666666667,0.3255681544571651
8.619444444444445,0.3447521474854053
8.622222222222222,0.36379320495315187
8.625,0.38268343236509283
8.627777777777778,0.4014149977605949
8.630555555555556,0.4199801349609178
8.633333333333333,0.43837114678907535
8.636111111111111,0.45658040826116614
8.63888888888889,0.47460036974764347
8.641666666666667,0.49242356010347266
8.644444444444444,0.5100425897656771
8.647222222222222,0.5274501538171039
8.65,0.5446390350150337
8.652777777777779,0.5616021067835018
8.655555555555555,0.5783323361679861
8.658333333333333,0.5948227867513431
8.661111111111111,0.6110666215296039
8.66388888888889,0.627057105746668
8.666666666666668,0.6427876096865477
8.669444444444444,0.6582516114220635
8.672222222222222,0.6734426995189022
8.675,0.6883545756937579
8.677777777777779,0.7029810574256676
8.680555555555555,0.7173160805192922
8.683333333333334,0.7313537016191751
8.686111111111112,0.7450881006738502
8.68888888888889,0.7585135833488772
8.691666666666666,0.7716245833877208
8.694444444444445,0.7844156649195783
8.697222222222223,0.7968815247130575
8.700000000000001,0.8090169943749532
8.702777777777778,0.8208170424930664
8.705555555555556,0.8322767767222786
8.708333333333334,0.843391445812888
8.711111111111112,0.8541564415805294
8.713888888888889,0.864567300816732
8.716666666666667,0.8746197071393986
8.719444444444445,0.8843094927823711
8.722222222222223,0.8936326403234175
8.725,0.9025852843498607
8.727777777777778,0.9111637130612183
8.730555555555556,0.9193643698080916
8.733333333333334,0.9271838545667908
8.73611111111111,0.9346189253489876
8.738888888888889,0.9416664995458754
8.741666666666667,0.9483236552062004
8.744444444444445,0.9545876322477338
8.747222222222222,0.9604558336016041
8.75,0.9659258262890678
8.752777777777778,0.9709953424302061
8.755555555555556,0.9756622801842151
8.758333333333333,0.979924704620828
8.761111111111111,0.9837808485225604
8.76388888888889,0.987229113117376
8.766666666666667,0.9902680687415724
8.769444444444444,0.9928964554325094
8.772222222222222,0.9951131834510037
8.775,0.9969173337331287
8.777777777777779,0.998308158271269
8.780555555555555,0.9992850804242445
8.783333333333333,0.9998476951563913
8.786111111111111,0.9999957692054862
8.78888888888889,0.9997292411794615
8.791666666666668,0.9990482215818572
8.794444444444444,0.9979529927660074
8.797222222222222,0.9964440088179712
8.8,0.9945218953682726
8.802777777777779,0.9921874493325079
8.805555555555555,0.9894416385809447
8.808333333333334,0.9862856015372312
8.811111111111112,0.9827206467064125
8.81388888888889,0.9787482521324126
8.816666666666666,0.9743700647852361
8.819444444444445,0.9695878998781163
8.822222222222223,0.9644037401149386
8.825000000000001,0.9588197348681918
8.827777777777778,0.9528381992878339
8.830555555555556,0.946461613341421
8.833333333333334,0.9396926207859039
8.836111111111112,0.9325340280715162
8.838888888888889,0.9249888031782143
8.841666666666667,0.917060074385121
8.844444444444445,0.9087511289735599
8.847222222222223,0.9000654118641154
8.85,0.891006524188367
8.852777777777778,0.881578221795821
8.855555555555556,0.8717844136967586
8.858333333333334,0.8616291604415204
8.86111111111111,0.8511166724370002
8.863888888888889,0.8402513082009645
8.866666666666667,0.829037572555039
8.869444444444445,0.817480114756962
8.872222222222222,0.8055837265730015
8.875,0.7933533402912355
8.877777777777778,0.7807940266766578
8.880555555555556,0.7679109928687853
8.883333333333333,0.754709580222776
8.886111111111111,0.7411952620948459
8.88888888888889,0.7273736415730491
8.891666666666667,0.7132504491541799
8.894444444444444,0.6988315403678962
8.897222222222222,0.684122893348994
8.9,0.66913060635885
8.902777777777779,0.6538608952570591
8.905555555555557,0.6383200909243153
8.908333333333333,0.6225146366376152
8.911111111111111,0.6064510853988068
8.91388888888889,0.5901360972177553
8.916666666666668,0.5735764363510345
8.919444444444444,0.5567789684974621
8.922222222222222,0.5397506579515081
8.925,0.5224985647159416
8.927777777777779,0.5050298415746801
8.930555555555555,0.4873517311272423
8.933333333333334,0.46947156278588814
8.936111111111112,0.4513967497368916
8.93888888888889,0.43313478586695514
8.941666666666666,0.4146932426562414
8.944444444444445,0.39607976603915657
8.947222222222223,0.377302073234394
8.950000000000001,0.35836794954529466
8.952777777777778,0.33928524513205627
8.955555555555556,0.32006187175697387
8.958333333333334,0.3007057995042727
8.961111111111112,0.2812250534756274
8.963888888888889,0.2616277104629376
8.966666666666667,0.2419218955996589
8.969444444444445,0.22211577899209167
8.972222222222223,0.2022175723320234
8.975,0.182235525492144
8.977777777777778,0.16217792310556114
8.980555555555556,0.14205308113104323
8.983333333333334,0.12186934340513543
8.98611111111111,0.10163507818280107
8.988888888888889,0.08135867466785461
8.991666666666667,0.06104853953485032
8.994444444444445,0.0407130934435864
8.997222222222222,0.020360767547895453
9.0,-9.809554005910593e-16
9.002777777777778,-0.020360767547897413
9.005555555555556,-0.04071309344360256
9.008333333333333,-0.061048539534852286
9.011111111111111,-0.08135867466785657
9.01388888888889,-0.10163507818280303
9.016666666666667,-0.12186934340515149
9.019444444444444,-0.14205308113104517
9.022222222222222,-0.1621779231055631
9.025,-0.18223552549214594
