Time,Signal
0.0,-0.48684809336582807
0.002777777777777778,-0.8528966825937879
0.005555555555555556,0.13128878076609998
0.008333333333333333,-0.13610634937955257
0.011111111111111112,-0.9621600116903151
0.01388888888888889,0.9159212112733911
0.016666666666666666,-0.965583663536021
0.019444444444444445,0.9906532261817282
0.022222222222222223,-0.6479328753911259
0.025,0.5518570930309074
0.02777777777777778,-0.09771409077652897
0.030555555555555558,-0.42683822695663054
0.03333333333333333,0.5514777421301769
0.036111111111111115,0.7094169709785398
0.03888888888888889,-0.8544904966428606
0.04166666666666667,0.5717530581567793
0.044444444444444446,-0.9560361872255884
0.04722222222222222,-0.9377215689698711
0.05,0.7367246736815077
0.05277777777777778,-0.9130114418999414
0.05555555555555556,0.7817417830807342
0.058333333333333334,-0.6339893821987383
0.061111111111111116,0.6323464823315543
0.0638888888888889,-0.9997405423585426
0.06666666666666667,0.9999719348021593
0.06944444444444445,0.9944367308615185
0.07222222222222223,-0.666411120958709
0.075,-0.978932776407037
0.07777777777777778,0.9940635990468504
0.08055555555555556,-0.8906463378774867
0.08333333333333334,-0.6125826783329995
0.08611111111111111,0.5159672691418301
0.08888888888888889,0.36360610615080496
0.09166666666666667,0.22229118036061093
0.09444444444444444,0.0895580019676686
0.09722222222222222,0.019144146813459453
0.1,0.9051505373653514
0.10277777777777779,-0.9114228653658425
0.10555555555555556,0.9371485351983746
0.10833333333333334,-0.9953703607814071
0.11111111111111112,0.8044285782615469
0.11388888888888889,-0.9302220503945071
0.11666666666666667,0.04749079971198199
0.11944444444444445,-0.12204316030177373
0.12222222222222223,-0.565322603140018
0.125,-0.9292390462497097
0.1277777777777778,0.7838314564486975
0.13055555555555556,-0.5222148908545937
0.13333333333333333,0.5943842595797837
0.13611111111111113,-0.284160111036471
0.1388888888888889,0.8368253363751361
0.14166666666666666,-0.9812281425111955
0.14444444444444446,0.19136957877607397
0.14722222222222223,0.2699868591294149
0.15,-0.7936580406025899
0.1527777777777778,0.9575685119844497
0.15555555555555556,-0.0916366653381958
0.15833333333333333,-0.9809640072910439
0.16111111111111112,0.16865286194007995
0.1638888888888889,-0.24991379632406774
0.16666666666666669,0.815853947651851
0.16944444444444445,-0.65255341191473
0.17222222222222222,0.9849760770028814
0.17500000000000002,-0.9547826927793196
0.17777777777777778,0.15981580110877108
0.18055555555555555,-0.01821020272288755
0.18333333333333335,0.19234883498818411
0.18611111111111112,0.004412561278083262
0.18888888888888888,-0.4018410523151277
0.19166666666666668,0.8676604725134314
0.19444444444444445,0.7340023993333011
0.19722222222222224,-0.96640622043453
0.2,0.9159529366092974
0.20277777777777778,-0.2569472774658639
0.20555555555555557,0.9506437676846571
0.20833333333333334,0.7538238932118239
0.2111111111111111,-0.980618056180783
0.2138888888888889,-0.02821668340781415
0.21666666666666667,0.9931716959668712
0.21944444444444444,-0.3726826758063885
0.22222222222222224,-0.9954395701015577
0.225,-0.18323992455270205
0.22777777777777777,0.4815495510165437
0.23055555555555557,-0.9976797468197937
0.23333333333333334,0.2528750670298016
0.23611111111111113,-0.6091342066114782
0.2388888888888889,0.41549453646571016
0.24166666666666667,0.9780010107538676
0.24444444444444446,-0.9969734128407621
0.24722222222222223,0.7436003158263826
0.25,-0.9706226353483899
0.25277777777777777,0.9820442390381499
0.2555555555555556,-0.9829265277805556
0.25833333333333336,0.7340021814291421
0.2611111111111111,0.13105639128368363
0.2638888888888889,0.6869938528747132
0.26666666666666666,-0.005740942959953409
0.26944444444444443,0.4090460235023075
0.27222222222222225,-0.5688562133332228
0.275,-0.5477180372914934
0.2777777777777778,0.053486375147902214
0.28055555555555556,-0.6665874011917519
0.2833333333333333,0.13314938831606518
0.28611111111111115,0.09321350370838019
0.2888888888888889,0.7842840352291139
0.2916666666666667,-0.17901670865577315
0.29444444444444445,-0.9851889611326017
0.2972222222222222,-0.32580830688219276
0.3,0.6067963263782797
0.3027777777777778,-0.47598940159989384
0.3055555555555556,-0.785827015655727
0.30833333333333335,-0.250876830932859
0.3111111111111111,-0.8367014610142458
0.3138888888888889,0.37367775839239914
0.31666666666666665,0.2521142777693546
0.3194444444444445,-0.7055351068652975
0.32222222222222224,0.9996731372188006
0.325,-0.5331802710498754
0.3277777777777778,0.5883997864471341
0.33055555555555555,0.69372784709399
0.33333333333333337,-0.6809089126689464
0.33611111111111114,-0.5594487215642019
0.3388888888888889,0.9054466215781409
0.3416666666666667,0.2609178076061659
0.34444444444444444,-0.17837616283939367
0.3472222222222222,0.9235290586130147
0.35000000000000003,0.4858257723848678
0.3527777777777778,-0.911089098538547
0.35555555555555557,-0.10196659412657637
0.35833333333333334,0.9284149921972956
0.3611111111111111,0.32499497433188074
0.36388888888888893,-0.4293794801989178
0.3666666666666667,0.33713248257372364
0.36944444444444446,-0.9466718606687881
0.37222222222222223,0.038704761196025644
0.375,-0.8308607565735995
0.37777777777777777,0.889968069912461
0.3805555555555556,0.8311993580125723
0.38333333333333336,-0.9364851120704588
0.3861111111111111,-0.9985476321861834
0.3888888888888889,-0.321286056118467
0.39166666666666666,0.16905204981334016
0.3944444444444445,0.7746613232518335
0.39722222222222225,0.8988040404445574
0.4,-0.9467096555847375
0.4027777777777778,0.9782556012994488
0.40555555555555556,-0.9966488830124217
0.4083333333333333,0.999310370170336
0.41111111111111115,-0.5023496395171747
0.4138888888888889,-0.010143851930730046
0.4166666666666667,-0.8393340880699415
0.41944444444444445,0.9962307546971353
0.4222222222222222,-0.18615994852494253
0.425,0.961019513433866
0.4277777777777778,-0.8514774818602544
0.4305555555555556,0.7378812061740829
0.43333333333333335,-0.9853834385425461
0.4361111111111111,0.955444728328381
0.4388888888888889,-0.48318305457370686
0.4416666666666667,0.9752199284046373
0.4444444444444445,0.9328910222740466
0.44722222222222224,-0.14950079024435814
0.45,0.2328822075857731
0.4527777777777778,0.33872689481909624
0.45555555555555555,-0.959783539203794
0.45833333333333337,0.683990508425395
0.46111111111111114,0.9587071897347494
0.4638888888888889,-0.33289478255506905
0.4666666666666667,-0.4464294780189295
0.46944444444444444,0.9011119358408203
0.47222222222222227,-0.9879535057934713
0.47500000000000003,-0.6147999504836109
0.4777777777777778,0.16236000375147303
0.48055555555555557,-0.8835490495615588
0.48333333333333334,-0.008751995660198278
0.4861111111111111,0.7886680973759603
0.48888888888888893,-0.9940220011738171
0.4916666666666667,0.8368242406788553
0.49444444444444446,-0.12662902708776894
0.49722222222222223,-0.9908476824316632
0.5,0.9359407389438251
0.5027777777777778,-0.9993046467242389
0.5055555555555555,0.9897753655651427
0.5083333333333333,-0.9867816513978648
0.5111111111111112,0.691629320224064
0.513888888888889,-0.9357053297207034
0.5166666666666667,-0.5607036461927789
0.5194444444444445,-0.824626383758896
0.5222222222222223,0.6576015646574763
0.525,-0.5844039844550101
0.5277777777777778,0.8975641240291614
0.5305555555555556,-0.008856908910669084
0.5333333333333333,0.1378566143059692
0.5361111111111111,-0.8960592448369036
0.5388888888888889,0.9871117575785886
0.5416666666666667,-0.6853705480114245
0.5444444444444445,0.9870877654845279
0.5472222222222223,-0.6053930626710041
0.55,-0.926356144699837
0.5527777777777778,0.9394563603753058
0.5555555555555556,0.014756854760432274
0.5583333333333333,0.9551587373315151
0.5611111111111111,-0.696655154372244
0.5638888888888889,0.3077196992724144
0.5666666666666667,0.49832988637034814
0.5694444444444444,-0.9987838578307845
0.5722222222222223,-0.7573273598259975
0.5750000000000001,-0.7238918768875721
0.5777777777777778,-0.44447889194858825
0.5805555555555556,0.6191781349541837
0.5833333333333334,0.8655948217362954
0.5861111111111111,-0.9329527178810292
0.5888888888888889,0.98971658831552
0.5916666666666667,-0.7017217582823322
0.5944444444444444,0.7262254345824232
0.5972222222222222,-0.7444692687037361
0.6,0.32349160668343524
0.6027777777777777,-0.21128583943642373
0.6055555555555556,0.48256598082866853
0.6083333333333334,0.005663890652169321
0.6111111111111112,0.46664938743019296
0.6138888888888889,-0.8629120576819491
0.6166666666666667,0.4611233435972941
0.6194444444444445,0.15617930118306375
0.6222222222222222,0.4487728609219125
0.625,-0.9264816194964905
0.6277777777777778,0.2302222559586888
0.6305555555555555,-0.4130995534190867
0.6333333333333333,-0.8971555350534747
0.6361111111111112,-0.19705618814712897
0.638888888888889,0.4719055613423952
0.6416666666666667,0.2802508475601103
0.6444444444444445,-0.5044585202558532
0.6472222222222223,-0.855751316562225
0.65,0.8348715249008665
0.6527777777777778,-0.9996955653611896
0.6555555555555556,0.5396941427481543
0.6583333333333333,0.9093348334951028
0.6611111111111111,-0.9874306468596299
0.6638888888888889,0.6937385463787705
0.6666666666666667,-0.9845647891179827
0.6694444444444445,0.8697285647603954
0.6722222222222223,-0.9999247302528433
0.675,0.9130952034400144
0.6777777777777778,0.2568543238851697
0.6805555555555556,-0.7652238908900404
0.6833333333333333,-0.6083573625129972
0.6861111111111111,0.9833260412325701
0.6888888888888889,-0.7031887862406297
0.6916666666666667,-0.7614563531545678
0.6944444444444444,0.38304467944245857
0.6972222222222223,-0.7124183494484013
0.7000000000000001,0.8585834348509257
0.7027777777777778,-0.7558195227630997
0.7055555555555556,0.8339330008019591
0.7083333333333334,0.9757877186393004
0.7111111111111111,-0.9927385894963219
0.7138888888888889,0.5924568082159337
0.7166666666666667,-0.9191802136861001
0.7194444444444444,-0.7951546757882756
0.7222222222222222,0.9493380160402108
0.725,-0.791125233374753
0.7277777777777779,0.6189550482100759
0.7305555555555556,-0.9727154791149
0.7333333333333334,0.9717800968215159
0.7361111111111112,0.9203483574168148
0.7388888888888889,0.7506201911702993
0.7416666666666667,-0.5274823491506692
0.7444444444444445,0.9712960209784424
0.7472222222222222,-0.9634281353318126
0.75,0.7034223398284698
0.7527777777777778,-0.9273141830591873
0.7555555555555555,0.996897729492496
0.7583333333333334,0.13246274599540486
0.7611111111111112,0.7534020176035545
0.763888888888889,-0.7771571258336517
0.7666666666666667,-0.7150579575511754
0.7694444444444445,0.9727902727436246
0.7722222222222223,-0.9031281318771134
0.775,0.9977529659369314
0.7777777777777778,-0.9083222034551721
0.7805555555555556,0.851536605246867
0.7833333333333333,-0.3866492167543431
0.7861111111111111,-0.47993802055247203
0.788888888888889,-0.01387974246173451
0.7916666666666667,0.7984708089354142
0.7944444444444445,-0.360285534453826
0.7972222222222223,-0.9254684405592909
0.8,-0.9950076949104304
0.8027777777777778,-0.9552260273217779
0.8055555555555556,0.9301085014825632
0.8083333333333333,-0.9991565288734817
0.8111111111111111,-0.3561206581557507
0.8138888888888889,0.5511219476603212
0.8166666666666667,0.999938801463608
0.8194444444444445,-0.30357375959171035
0.8222222222222223,0.9995207237950363
0.8250000000000001,-0.8057729686200261
0.8277777777777778,0.9163486182544851
0.8305555555555556,-0.1372850149497413
0.8333333333333334,0.35427736048151914
0.8361111111111111,0.818143763653084
0.8388888888888889,-0.23887860028118307
0.8416666666666667,0.20698808934631974
0.8444444444444444,0.13596039591459483
0.8472222222222222,-0.30029902877759035
0.85,-0.7660844009653319
0.8527777777777779,0.8964729977586609
0.8555555555555556,-0.275507109177507
0.8583333333333334,-0.47655949439610884
0.8611111111111112,0.9179796798214305
0.8638888888888889,-0.8883153092889926
0.8666666666666667,0.9202802315532458
0.8694444444444445,-0.9998457740119966
0.8722222222222222,-0.5399616781635724
0.875,0.49970116671688936
0.8777777777777778,-0.5034424252286712
0.8805555555555555,0.9478112149951556
0.8833333333333334,-0.536587833265141
0.8861111111111112,0.888123713493055
0.888888888888889,-0.9553902963553956
0.8916666666666667,0.7912511171128616
0.8944444444444445,-0.645005720169716
0.8972222222222223,0.5722276014340888
0.9,-0.6071611552953669
0.9027777777777778,-0.6689818957018169
0.9055555555555556,0.7650454507552807
0.9083333333333333,-0.7806383335628421
0.9111111111111111,0.54211415944349
0.913888888888889,-0.9983088103020146
0.9166666666666667,0.32512703506940543
0.9194444444444445,-0.9299920233260714
0.9222222222222223,-0.5960300077678129
0.925,-0.8757856393740696
0.9277777777777778,-0.41899509897092
0.9305555555555556,-0.4858585441116643
0.9333333333333333,0.713691723308591
0.9361111111111111,-0.03592849468284831
0.9388888888888889,0.9574563570234401
0.9416666666666667,0.8732705616282865
0.9444444444444445,-0.9140253467033443
0.9472222222222223,-0.6503342559466643
0.9500000000000001,0.9730713985872
0.9527777777777778,-0.709215915681145
0.9555555555555556,0.9558826192564331
0.9583333333333334,0.10164331860369231
0.9611111111111111,-0.8427131699462727
0.9638888888888889,0.2497471118818099
0.9666666666666667,-0.9983640112310407
0.9694444444444444,0.39611487301606546
0.9722222222222222,0.9228033481705561
0.9750000000000001,-0.7739520219130476
0.9777777777777779,-0.6741019987915084
0.9805555555555556,-0.3644934437723604
0.9833333333333334,0.9304943758618699
0.9861111111111112,0.055671305779438955
0.9888888888888889,-0.8415592433017653
0.9916666666666667,-0.015829335716615416
0.9944444444444445,0.07402750582754891
0.9972222222222222,0.82300535065221
1.0,0.20853342321472207
1.0027777777777778,0.8570825150462624
1.0055555555555555,-0.8119500759928947
1.0083333333333333,0.40174550106484697
1.011111111111111,-0.6616458792493624
1.0138888888888888,0.9999959291242216
1.0166666666666666,0.5258619807243883
1.0194444444444444,-0.3903033565557121
1.0222222222222224,-0.8909736396077499
1.0250000000000001,0.0860468351475928
1.027777777777778,0.8359906127145275
1.0305555555555557,-0.8641732527317219
1.0333333333333334,0.4926942798655906
1.0361111111111112,-0.6975047577570408
1.038888888888889,0.00637597895493616
1.0416666666666667,0.5050672019659742
1.0444444444444445,-0.9985634018965411
1.0472222222222223,0.8263724536188128
1.05,-0.9409614057883495
1.0527777777777778,0.768199317033709
1.0555555555555556,-0.7613434964821648
1.0583333333333333,0.7430763507023587
1.0611111111111111,-0.9999786784176293
1.0638888888888889,0.9993264214340177
1.0666666666666667,-0.9997198352413674
1.0694444444444444,0.8803143462412703
1.0722222222222222,-0.2860420294622582
1.075,0.4463691357797961
1.0777777777777777,-0.6059991349418659
1.0805555555555555,-0.9713477043516521
1.0833333333333335,0.9391431988378214
1.0861111111111112,-0.682363431983687
1.088888888888889,0.5918743289711391
1.0916666666666668,-0.6796413460376614
1.0944444444444446,-0.844015460464077
1.0972222222222223,0.85248347629599
1.1,0.14690793115371698
1.1027777777777779,0.31103834322722795
1.1055555555555556,0.6887635625568304
1.1083333333333334,0.7420096697031655
1.1111111111111112,-0.10213553229392265
1.113888888888889,0.29867623654981384
1.1166666666666667,-0.4897355630755865
1.1194444444444445,0.23750939651399527
1.1222222222222222,-0.7898871073731267
1.125,-0.6580185050770876
1.1277777777777778,-0.4914874009799942
1.1305555555555555,-0.9841164408401747
1.1333333333333333,0.9149924743474341
1.136111111111111,-0.9539434961791018
1.1388888888888888,-0.9959475424151631
1.1416666666666666,-0.26473461967714945
1.1444444444444446,-0.4439270807632762
1.1472222222222224,-0.26282031905028275
1.1500000000000001,0.22381013505011998
1.152777777777778,-0.4475731323354912
1.1555555555555557,-0.3822598201369625
1.1583333333333334,0.12927495745686265
1.1611111111111112,0.6403683410730967
1.163888888888889,-0.03590100729162414
1.1666666666666667,0.18816421535483638
1.1694444444444445,-0.9077269895371325
1.1722222222222223,-0.6925595639153085
1.175,0.4297888612420463
1.1777777777777778,-0.8519781057131711
1.1805555555555556,0.5972755557774262
1.1833333333333333,-0.8814828277212228
1.1861111111111111,0.5290401700613802
1.1888888888888889,-0.4661882418190276
1.1916666666666667,0.5866018687888409
1.1944444444444444,0.8716812531498788
1.1972222222222222,0.1158256667915977
1.2,-0.09182534021125467
1.2027777777777777,-0.7956506790966278
1.2055555555555555,0.5622382364450865
1.2083333333333335,-0.14337001730890986
1.2111111111111112,-0.9777413906220075
1.213888888888889,0.904530395730064
1.2166666666666668,-0.9776646717098965
1.2194444444444446,0.8871574718308278
1.2222222222222223,-0.662816455767123
1.225,0.9013247305210716
1.2277777777777779,-0.7783919367940596
1.2305555555555556,0.3875072008268768
1.2333333333333334,-0.9849777645290955
1.2361111111111112,0.1261248779172906
1.238888888888889,0.0866035072922749
1.2416666666666667,-0.561381334380331
1.2444444444444445,0.996270533881041
1.2472222222222222,-0.6305371499936648
1.25,-0.31033243819071543
1.2527777777777778,0.29033799497005613
1.2555555555555555,0.7849862678665042
1.2583333333333333,-0.20798041154940997
1.261111111111111,-0.999012917371937
1.2638888888888888,0.6632393743351658
1.2666666666666666,-0.5277370245994801
1.2694444444444446,0.5248018115100923
1.2722222222222224,-0.3847745806582825
1.2750000000000001,-0.4998949889682221
1.277777777777778,0.9229274891104315
1.2805555555555557,0.8324197642000758
1.2833333333333334,-0.9378802179979265
1.2861111111111112,0.6660043339323221
1.288888888888889,-0.2722653615516412
1.2916666666666667,-0.9984824320648833
1.2944444444444445,0.6091840238936292
1.2972222222222223,-0.6938036166565481
1.3,0.6711827330692169
1.3027777777777778,0.543908280941142
1.3055555555555556,-0.9983711552238633
1.3083333333333333,0.22731912618758898
1.3111111111111111,-0.4239212905033451
1.3138888888888889,-0.13131360436125955
1.3166666666666667,-0.646977656385965
1.3194444444444444,0.01858387683735548
1.3222222222222222,-0.9311430083501441
1.325,0.9841869748573822
1.3277777777777777,0.7407499552813918
1.3305555555555557,-0.796983292537778
1.3333333333333335,0.975955260310237
1.3361111111111112,-0.6720996863467702
1.338888888888889,-0.47326508003553286
1.3416666666666668,-0.018732242686662657
1.3444444444444446,0.8091945986375637
1.3472222222222223,-0.9354122108545719
1.35,0.6716212122685767
1.3527777777777779,-0.3286355233280749
1.3555555555555556,0.7087822715791021
1.3583333333333334,0.969475123064758
1.3611111111111112,-0.2578854269671238
1.363888888888889,0.22274860328742213
1.3666666666666667,-0.3199849532505938
1.3694444444444445,-0.8623924638593505
1.3722222222222222,0.2092449426120823
1.375,-0.15131776705710695
1.3777777777777778,-0.9171753911003062
1.3805555555555555,0.8433358213354888
1.3833333333333333,-0.9695549436069785
1.386111111111111,0.9377805595977392
1.3888888888888888,0.2939552697142258
1.3916666666666668,-0.4624060525133123
1.3944444444444446,0.8468509811217073
1.3972222222222224,-0.497882411640453
1.4000000000000001,-0.32213921664249856
1.402777777777778,0.80372742126683
1.4055555555555557,-0.5355973989466564
1.4083333333333334,0.4876198536322611
1.4111111111111112,-0.5881044820040836
1.413888888888889,0.8656581499691538
1.4166666666666667,-0.2196306681503112
1.4194444444444445,-0.10463056264527992
1.4222222222222223,-0.7093358689271132
1.425,0.1703905623010794
1.4277777777777778,0.45992283895590064
1.4305555555555556,-0.09751777094875436
1.4333333333333333,0.920379809520243
1.4361111111111111,-0.5649325754985031
1.4388888888888889,-0.9661291407552992
1.4416666666666667,-0.1266424615402931
1.4444444444444444,-0.2809838485040119
1.4472222222222222,-0.2995148317979305
1.45,-0.5696127787114778
1.4527777777777777,0.8503892644805476
1.4555555555555557,0.9996677196710434
1.4583333333333335,-0.9013167619525414
1.4611111111111112,0.9829383796188998
1.463888888888889,-0.9914392483088394
1.4666666666666668,0.9871774648681164
1.4694444444444446,0.2852647214856274
1.4722222222222223,-0.8157777055847609
1.475,-0.18172585188356216
1.4777777777777779,0.3413278952792052
1.4805555555555556,0.9990858313751326
1.4833333333333334,-0.8448201306761499
1.4861111111111112,-0.9131711285467211
1.488888888888889,0.98016982756659
1.4916666666666667,-0.9863477741509281
1.4944444444444445,0.6668735685210382
1.4972222222222222,-0.04703792983306403
1.5,-0.12265727295800107
1.5027777777777778,-0.10662963809307395
1.5055555555555555,0.933362982918455
1.5083333333333333,0.2456253957674354
1.511111111111111,-0.29224802585751725
1.5138888888888888,-0.9286356378316671
1.5166666666666668,0.018416281576033693
1.5194444444444446,-0.9752798005070908
1.5222222222222224,0.7308481857596015
1.5250000000000001,-0.5419426216166612
1.527777777777778,0.6531844658892569
1.5305555555555557,-0.9652907521956823
1.5333333333333334,0.994246721852756
1.5361111111111112,-0.412222307340495
1.538888888888889,0.8631756247388647
1.5416666666666667,-0.9409999141629
1.5444444444444445,0.7911697524328751
1.5472222222222223,0.8856838193471009
1.55,-0.5734254382479471
1.5527777777777778,0.9438639991478004
1.5555555555555556,-0.6786957698483549
1.5583333333333333,0.559799870246404
1.5611111111111111,-0.1416269457507983
1.5638888888888889,0.11235353307196139
1.5666666666666667,0.984882753170536
1.5694444444444444,-0.9680657276309379
1.5722222222222222,-0.6768202208258923
1.575,0.6822304504894641
1.577777777777778,-0.3485711825736778
1.5805555555555557,0.8433163380703776
1.5833333333333335,-0.6100714823768045
1.5861111111111112,0.9368788025137433
1.588888888888889,-0.9605153442271269
1.5916666666666668,0.5978474865740183
1.5944444444444446,0.4437250681277164
1.5972222222222223,-0.8360486864182753
1.6,0.8425714306291406
1.6027777777777779,-0.9180978211483214
1.6055555555555556,0.27061517199007784
1.6083333333333334,0.9519346541639933
1.6111111111111112,-0.8748530390229476
1.613888888888889,0.9992993591821423
1.6166666666666667,-0.8924128027204107
1.6194444444444445,0.9980665380473603
1.6222222222222222,-0.6809042674384049
1.625,0.42870656943414337
1.6277777777777778,-0.798443164836898
1.6305555555555555,-0.8936886522443964
1.6333333333333333,0.8575042879369554
1.636111111111111,-0.8961724122910646
1.638888888888889,0.9034877797425903
1.6416666666666668,-0.738470029277566
1.6444444444444446,-0.9513722284657864
1.6472222222222224,0.8282438663017392
1.6500000000000001,0.3530825553010352
1.652777777777778,-0.08985441231725125
1.6555555555555557,-0.7300459458392039
1.6583333333333334,0.8524544836268202
1.6611111111111112,-0.8869079962066004
1.663888888888889,0.16753639039192122
1.6666666666666667,0.9992192050622255
1.6694444444444445,-0.9697161822481262
1.6722222222222223,0.25715028459169265
1.675,-0.395196915796814
1.6777777777777778,0.12803322042351079
1.6805555555555556,-0.9841349493673811
1.6833333333333333,0.9851109404858222
1.6861111111111111,-0.9615827866852089
1.6888888888888889,0.7725886396883987
1.6916666666666667,-0.8520150200591733
1.6944444444444444,-0.20942883212098407
1.6972222222222222,0.8937120187190769
1.7,-0.9990352316412666
1.702777777777778,0.999510214916038
1.7055555555555557,-0.7107778107457136
1.7083333333333335,0.9501283295765245
1.7111111111111112,0.3894337419316229
1.713888888888889,-0.8116769253185548
1.7166666666666668,0.0539521841698588
1.7194444444444446,0.7929722030625372
1.7222222222222223,0.34152105077880723
1.725,0.7616328582417633
1.7277777777777779,-0.38949156177477157
1.7305555555555556,0.7646975537916971
1.7333333333333334,0.3092861467733209
1.7361111111111112,-0.6452743401756342
1.738888888888889,-0.32475873382765624
1.7416666666666667,-0.46632518395930317
1.7444444444444445,-0.992363068282849
1.7472222222222222,0.8730051740807867
1.75,0.9882388193718658
1.7527777777777778,-0.30155917867418736
1.7555555555555555,0.6240513461126802
1.7583333333333333,-0.8889669689322013
1.761111111111111,0.5371255225788635
1.763888888888889,0.9038588294434406
1.7666666666666668,-0.9714122265155494
1.7694444444444446,-0.5702563322625902
1.7722222222222224,0.03887478315994201
1.7750000000000001,0.8246986132788295
1.777777777777778,-0.49444519146274496
1.7805555555555557,-0.5294167666926274
1.7833333333333334,-0.5877674257005392
1.7861111111111112,0.9190989056769306
1.788888888888889,-0.2648730949259443
1.7916666666666667,-0.6997209263220284
1.7944444444444445,-0.5078406463754129
1.7972222222222223,-0.18297810285174315
1.8,-0.28045473451622827
1.8027777777777778,0.7027451829619601
1.8055555555555556,0.6390650686832022
1.8083333333333333,-0.1472547453490311
1.8111111111111111,0.8143738377855161
1.8138888888888889,0.36081345148023936
1.8166666666666667,-0.407699692543049
1.8194444444444444,0.24230502531260778
1.8222222222222222,-0.7988617633783877
1.8250000000000002,0.5312381700896136
1.827777777777778,0.22276013535958242
1.8305555555555557,-0.2769684293521548
1.8333333333333335,0.9440921518773696
1.8361111111111112,0.1757929859623724
1.838888888888889,0.7138976848356967
1.8416666666666668,0.20061965871482315
1.8444444444444446,0.9992327309240864
1.8472222222222223,0.12239963363050789
1.85,-0.030052843778216966
1.8527777777777779,0.3359744684174966
1.8555555555555556,-0.14528868269540335
1.8583333333333334,0.5726764836101679
1.8611111111111112,-0.782220368119854
1.863888888888889,0.5867870579751756
1.8666666666666667,-0.7704207251976654
1.8694444444444445,0.3085811575939801
1.8722222222222222,-0.28107933408306224
1.875,0.0060412375883196435
1.8777777777777778,-0.5532704622191648
1.8805555555555555,-0.9966450453649318
1.8833333333333333,0.6892918791108946
1.8861111111111113,0.44575197899665603
1.888888888888889,-0.986378995474282
1.8916666666666668,0.5503375759330433
1.8944444444444446,-0.4070151287486665
1.8972222222222224,-0.7989442257053522
1.9000000000000001,0.8719178007039845
1.902777777777778,0.5490866517010106
1.9055555555555557,0.1959357039970818
1.9083333333333334,-0.9994105796312032
1.9111111111111112,0.8460318237139836
1.913888888888889,0.7618401263964178
1.9166666666666667,-0.43368649794406006
1.9194444444444445,0.9733217371859432
1.9222222222222223,-0.4550101455009541
1.925,0.8670281856686576
1.9277777777777778,-0.5780864814783153
1.9305555555555556,0.4033727671097335
1.9333333333333333,0.11728729969600352
1.9361111111111111,-0.8859498127784154
1.9388888888888889,0.9329302206794025
1.9416666666666667,-0.4435098617253362
1.9444444444444444,0.9738870623509956
1.9472222222222222,-0.9987365420989033
1.9500000000000002,0.8890255447323394
1.952777777777778,-0.2610093189594137
1.9555555555555557,-0.7468456883724968
1.9583333333333335,0.6510290329300173
1.9611111111111112,-0.9550525294955191
1.963888888888889,0.7653475649338501
1.9666666666666668,-0.9828637183656781
1.9694444444444446,0.4720870365347667
1.9722222222222223,-0.973453441469161
1.975,-0.1095085005133112
1.9777777777777779,0.1684220847632426
1.9805555555555556,0.42792292687794564
1.9833333333333334,-0.6118586148298646
1.9861111111111112,-0.6161660255234912
1.988888888888889,-0.0430977377653937
1.9916666666666667,0.48216365875434414
1.9944444444444445,-0.9199722164941331
1.9972222222222222,0.19270895200261914
2.0,0.6136031721592488
2.0027777777777778,-0.9975945779523189
2.0055555555555555,0.9995942435738205
2.0083333333333333,-0.5072178852484409
2.011111111111111,0.9996489139951542
2.013888888888889,0.3761331471291194
2.0166666666666666,-0.21269328234542875
2.0194444444444444,-0.6461724943083351
2.022222222222222,0.9977527220982657
2.025,0.7299821081800488
2.0277777777777777,0.34812623170431295
2.0305555555555554,0.31921699138779985
2.033333333333333,0.1471433238860442
2.036111111111111,-0.6169779384964532
2.0388888888888888,0.4450603204816904
2.041666666666667,0.9841582448290406
2.0444444444444447,0.960223304222841
2.0472222222222225,-0.9922377723119975
2.0500000000000003,0.3289858378733525
2.052777777777778,0.9996690288804042
2.055555555555556,0.3161227239759067
2.0583333333333336,-0.9882374064687397
2.0611111111111113,0.15838601360404167
2.063888888888889,0.9998586685355267
2.066666666666667,-0.5074160515026691
2.0694444444444446,0.9612615353840951
2.0722222222222224,-0.9814549705885812
2.075,0.9481633829223266
2.077777777777778,-0.9700762274589754
2.0805555555555557,0.7517939130680247
2.0833333333333335,0.22994673040090502
2.0861111111111112,0.2224652600834091
2.088888888888889,0.9089549872089944
2.091666666666667,-0.47310683179888047
2.0944444444444446,-0.7375839243252936
2.0972222222222223,0.6235209756040988
2.1,-0.36699700566102245
2.102777777777778,0.9644071375191319
2.1055555555555556,-0.9068993312724254
2.1083333333333334,-0.05050523352003978
2.111111111111111,0.34977315947298354
2.113888888888889,-0.9824232793075568
2.1166666666666667,-0.40355587656537406
2.1194444444444445,0.24891017936427126
2.1222222222222222,-0.9093961199754392
2.125,-0.14033471018211927
2.1277777777777778,-0.5339288052647336
2.1305555555555555,0.9669184734950234
2.1333333333333333,0.29737927369072553
2.136111111111111,-0.963155166923065
2.138888888888889,0.9995829950961702
2.1416666666666666,-0.9302567510916538
2.1444444444444444,-0.011292753040954704
2.147222222222222,-0.051434926989153126
2.15,-0.3436994266921152
2.1527777777777777,0.8998257611796641
2.1555555555555554,-0.2150249153783857
2.158333333333333,0.7040420330544683
2.161111111111111,-0.7504253012258887
2.1638888888888888,-0.2506808917136855
2.166666666666667,0.5103525726604698
2.1694444444444447,-0.4420678963092589
2.1722222222222225,-0.3093491671663913
2.1750000000000003,-0.0268158638046486
2.177777777777778,0.863765648294821
2.180555555555556,0.8846954598566465
2.1833333333333336,-0.4129894618774066
2.1861111111111113,0.9992230192099815
2.188888888888889,-0.9373602095640451
2.191666666666667,0.1977993825114377
2.1944444444444446,0.9897506626667733
2.1972222222222224,-0.9759481319255346
2.2,0.42815444238551786
2.202777777777778,-0.5090317410272979
2.2055555555555557,-0.5550575173419179
2.2083333333333335,0.7141139276032771
2.2111111111111112,0.6376217092997347
2.213888888888889,-0.14058864050355147
2.216666666666667,-0.9611314558388647
2.2194444444444446,0.5462095121056393
2.2222222222222223,0.5652190582316985
2.225,-0.08541754986868416
2.227777777777778,-0.2322924873909945
2.2305555555555556,-0.7145710171922203
2.2333333333333334,0.9486466790423986
2.236111111111111,-0.2300515912837024
2.238888888888889,0.9901632184289431
2.2416666666666667,-0.7802685690097367
2.2444444444444445,0.7744225948004713
2.2472222222222222,-0.19809477742333606
2.25,-0.7458531657929585
2.2527777777777778,-0.2468350108388857
2.2555555555555555,0.07113274401202019
2.2583333333333333,0.8556170460499275
2.261111111111111,-0.4545089500020162
2.263888888888889,-0.5546084442028587
2.2666666666666666,0.2238834322275721
2.2694444444444444,-0.5990394479795226
2.272222222222222,-0.06494794526353125
2.275,0.5337414327443609
2.2777777777777777,-0.7805182123658837
2.2805555555555554,-0.44872855563766834
2.283333333333333,-0.536178261092621
2.286111111111111,-0.2580399414460012
2.288888888888889,-0.8763278177698824
2.291666666666667,0.9949868878198597
2.2944444444444447,0.7410966325183209
2.2972222222222225,-0.6085331772594365
2.3000000000000003,-0.7020000294006093
2.302777777777778,0.28642250993327056
2.305555555555556,-0.8110049311559228
2.3083333333333336,0.6375496560316827
2.3111111111111113,0.611586775758089
2.313888888888889,0.09870353418915911
2.316666666666667,0.014160076817993987
2.3194444444444446,-0.9522998895745685
2.3222222222222224,0.8136889453955911
2.325,0.897811437690635
2.327777777777778,-0.8234685952108243
2.3305555555555557,0.7199846117873094
2.3333333333333335,-0.6699228730476715
2.3361111111111112,0.8225428194336867
2.338888888888889,-0.8510751045411042
2.341666666666667,0.8074747928708791
2.3444444444444446,-0.9918008749458391
2.3472222222222223,0.462087476950127
2.35,-0.3779604842738068
2.352777777777778,-0.8657291002111814
2.3555555555555556,0.4207583439542989
2.3583333333333334,-0.4201452050425854
2.361111111111111,0.6112167579396097
2.363888888888889,-0.6701559818823889
2.3666666666666667,0.47222466583651607
2.3694444444444445,-0.9599301362222371
2.3722222222222222,-0.6597412365167485
2.375,0.9051219264624595
2.3777777777777778,-0.9902967723186095
2.3805555555555555,-0.06926884132936434
2.3833333333333333,0.17854910551805542
2.386111111111111,0.7927143857920228
2.388888888888889,0.9853892890757394
2.3916666666666666,-0.8596817097681522
2.3944444444444444,-0.9265571747708035
2.397222222222222,0.49711860774715416
2.4,-0.9948100972931219
2.4027777777777777,0.6684861308557949
2.4055555555555554,-0.6088517175524852
2.408333333333333,-0.6385723364353836
2.411111111111111,0.16174844916731485
2.413888888888889,0.7351103426464337
2.416666666666667,-0.24360423203867235
2.4194444444444447,0.8754774155957916
2.4222222222222225,-0.10132210016110745
2.4250000000000003,0.840805957827632
2.427777777777778,-0.29335014530489684
2.430555555555556,0.3795830452190477
2.4333333333333336,0.18846578483721246
2.4361111111111113,-0.7860742306781086
2.438888888888889,0.985047718214776
2.441666666666667,-0.9884331510438811
2.4444444444444446,0.9934856172872399
2.4472222222222224,-0.9353645166456532
2.45,0.8068859044429468
2.452777777777778,0.21793126539297591
2.4555555555555557,-0.25169798846195596
2.4583333333333335,-0.5631318677610433
2.4611111111111112,0.24492840373328534
2.463888888888889,0.6926299875320957
2.466666666666667,-0.6556531638788936
2.4694444444444446,-0.045881127223467606
2.4722222222222223,0.4923504187492462
2.475,0.3400391968393048
2.477777777777778,-0.9484616718677316
2.4805555555555556,0.389649402706142
2.4833333333333334,-0.3691522450706215
2.486111111111111,0.46065089704602796
2.488888888888889,-0.5205759028205179
2.4916666666666667,-0.20304961384538725
2.4944444444444445,-0.6917259015114022
2.4972222222222222,0.3957718463383555
2.5,-0.6868366791177152
2.5027777777777778,0.9779289370970154
2.5055555555555555,-0.844881750068197
2.5083333333333333,0.7296615421691229
2.511111111111111,-0.25926078672592284
2.513888888888889,0.7024809618581728
2.5166666666666666,0.9986855510470194
2.5194444444444444,-0.9067906483623407
2.522222222222222,0.9067221692726551
2.525,-0.3199963447935321
2.5277777777777777,0.9175862711465469
2.5305555555555554,-0.9930942483354784
2.533333333333333,-0.8345310379046469
2.5361111111111114,0.5874767487853493
2.538888888888889,-0.29977765195270184
2.541666666666667,-0.996558973536424
2.5444444444444447,0.3204062436585753
2.5472222222222225,-0.2722802871723939
2.5500000000000003,-0.79781370572283
2.552777777777778,0.9996389443395443
2.555555555555556,-0.7417948398742554
2.5583333333333336,0.7017643592960854
2.5611111111111113,-0.5653257807435215
2.563888888888889,0.3757823486299468
2.566666666666667,-0.7019607212870084
2.5694444444444446,-0.6792869174860188
2.5722222222222224,0.02349469296196775
2.575,-0.8607092589317009
2.577777777777778,0.9371365956561575
2.5805555555555557,-0.9828717738536773
2.5833333333333335,-0.5525320642833674
2.5861111111111112,0.9995038004082084
2.588888888888889,-0.8820328153638215
2.591666666666667,0.20546649452787674
2.5944444444444446,-0.9251409405353876
2.5972222222222223,-0.2739258631225912
2.6,0.8173969007016245
2.602777777777778,-0.740798972117095
2.6055555555555556,-0.6856195553765693
2.6083333333333334,0.06819201704215858
2.611111111111111,-0.48044219831211465
2.613888888888889,0.10750529644827438
2.6166666666666667,-0.6178441321395995
2.6194444444444445,-0.9740012754421846
2.6222222222222222,0.9939467927277674
2.625,-0.7916176867251684
2.6277777777777778,-0.9189472125728699
2.6305555555555555,0.8871335009279666
2.6333333333333333,-0.8696475748798309
2.636111111111111,0.778073289755247
2.638888888888889,0.6371061854251574
2.6416666666666666,-0.38484171154427194
2.6444444444444444,0.23155674649105454
2.647222222222222,0.977949910936339
2.65,-0.17034927005755368
2.6527777777777777,0.625193528638369
2.6555555555555554,-0.6922822512253519
2.658333333333333,0.3906371498257969
2.6611111111111114,-0.8626074806993586
2.663888888888889,0.15222017881244587
2.666666666666667,-0.06530586782713951
2.6694444444444447,0.11221198580002932
2.6722222222222225,0.7437036356148464
2.6750000000000003,-0.9993402374498255
2.677777777777778,0.9560997518489788
2.680555555555556,-0.48082184715443516
2.6833333333333336,0.7273029629597237
2.6861111111111113,-0.963583219039598
2.688888888888889,0.9863367265772821
2.691666666666667,-0.952072872043915
2.6944444444444446,-0.3697328232492421
2.6972222222222224,0.8433890055119914
2.7,-0.8574786591480584
2.702777777777778,0.8105920028402324
2.7055555555555557,-0.9947519862621845
2.7083333333333335,0.8650206794335766
2.7111111111111112,-0.33851940845412354
2.713888888888889,0.4994045516223054
2.716666666666667,-0.9597727558241674
2.7194444444444446,0.9969628185832997
2.7222222222222223,-0.47066331029670944
2.725,-0.9782308462219095
2.727777777777778,0.501360147128754
2.7305555555555556,-0.11314459480841484
2.7333333333333334,-0.06707558810126552
2.736111111111111,0.456249714602232
2.738888888888889,-0.9761539796502937
2.7416666666666667,0.6317675146959006
2.7444444444444445,-0.5467439568522248
2.7472222222222222,0.8345764269000846
2.75,0.6467397542413964
2.7527777777777778,-0.4202423846210238
2.7555555555555555,-0.9247297211400535
2.7583333333333333,0.9670412652209062
2.761111111111111,-0.6965849075271394
2.763888888888889,-0.8230203278048582
2.7666666666666666,0.19765587766391046
2.7694444444444444,0.9757772020080725
2.772222222222222,-0.3801760018180467
2.775,-0.14322416463835275
2.7777777777777777,0.18572332603799288
2.7805555555555554,-0.5635801717117384
2.7833333333333337,-0.30107035922505665
2.7861111111111114,-0.8682668250918244
2.788888888888889,0.7717930342037664
2.791666666666667,0.8391602740597418
2.7944444444444447,-0.8727471011338961
2.7972222222222225,-0.7164706233393247
2.8000000000000003,-0.09090171178384387
2.802777777777778,-0.3477057323466379
2.805555555555556,-0.4976975682219579
2.8083333333333336,0.7192457615332523
2.8111111111111113,0.9693328936694472
2.813888888888889,0.8202633844272993
2.816666666666667,0.9468326719533118
2.8194444444444446,-0.5681716754369724
2.8222222222222224,-0.9702784448807804
2.825,0.5491797251043398
2.827777777777778,0.7642399915980185
2.8305555555555557,-0.9144167219067002
2.8333333333333335,-0.27527333943395316
2.8361111111111112,0.8149030888109643
2.838888888888889,-0.8705302614344548
2.841666666666667,0.5811979048303408
2.8444444444444446,-0.8132614615551446
2.8472222222222223,-0.08175528134186474
2.85,0.4932823566668262
2.852777777777778,-0.37137858374639954
2.8555555555555556,0.780174122259487
2.8583333333333334,0.4688087897903744
2.861111111111111,0.9999829494838313
2.863888888888889,-0.833072666157215
2.8666666666666667,-0.6018823222370069
2.8694444444444445,0.1506419708889668
2.8722222222222222,-0.6880153983271662
2.875,0.8399884644042337
2.8777777777777778,-0.21831085168608874
2.8805555555555555,0.24555269380136174
2.8833333333333333,0.38194934255289037
2.886111111111111,0.10977330948368916
2.888888888888889,-0.2739528546504205
2.8916666666666666,0.36440712916727225
2.8944444444444444,-0.6059299506566853
2.897222222222222,0.9647528559370405
2.9,0.4159638836846207
2.9027777777777777,0.0692326421942212
2.9055555555555554,0.978215861636898
2.9083333333333337,-0.9767933275802069
2.9111111111111114,-0.8067796895410847
2.913888888888889,0.2051069372231951
2.916666666666667,0.8547122569332576
2.9194444444444447,0.032457328875884615
2.9222222222222225,-0.7072256901943732
2.9250000000000003,0.3603534134403817
2.927777777777778,0.9980595661158933
2.930555555555556,-0.5525986081084157
2.9333333333333336,-0.23206362352404997
2.9361111111111113,0.8674781357050809
2.938888888888889,-0.8627503150952459
2.941666666666667,0.9155176099483392
2.9444444444444446,-0.17040101332704502
2.9472222222222224,-0.34219778531922046
2.95,-0.9971402950231997
2.952777777777778,0.7632749440444309
2.9555555555555557,0.7498611619089772
2.9583333333333335,0.13678511570844595
2.9611111111111112,0.8338813021747524
2.963888888888889,0.7208969239926686
2.966666666666667,0.8668672171350554
2.9694444444444446,-0.08651028329587704
2.9722222222222223,-0.3987334435925892
2.975,-0.7435946376209432
2.977777777777778,-0.8394679180781569
2.9805555555555556,0.23447432644866795
2.9833333333333334,0.17002204756349718
2.986111111111111,-0.6856300575627439
2.988888888888889,0.3896265301398063
2.9916666666666667,-0.016860094588094066
2.9944444444444445,-0.6830370730819593
2.9972222222222222,0.931497952521319
3.0,-0.8839915001624892
3.0027777777777778,-0.9851148397298148
3.0055555555555555,-0.3624419741652277
3.0083333333333333,-0.028335909415274477
3.011111111111111,-0.9974661557820453
3.013888888888889,0.9953029028853673
3.0166666666666666,-0.8567242108022128
3.0194444444444444,-0.9997597888392675
3.022222222222222,0.07397337240152536
3.025,0.9951093250521472
3.0277777777777777,-0.32589944527201514
3.030555555555556,-0.05363217980830141
3.0333333333333337,0.941811615586614
3.0361111111111114,0.9994769027038267
3.038888888888889,-0.05707998060470872
3.041666666666667,0.65074947948394
3.0444444444444447,0.6239912543753271
3.0472222222222225,-0.2544792460526892
3.0500000000000003,-0.12123218632881765
3.052777777777778,-0.26800700897469315
3.055555555555556,0.9949444435693968
3.0583333333333336,-0.989650871124797
3.0611111111111113,0.48535939741543654
3.063888888888889,-0.8904085246391285
3.066666666666667,-0.6211431635552114
3.0694444444444446,-0.9805409492414809
3.0722222222222224,-0.702671590157157
3.075,-0.4927254933317435
3.077777777777778,0.7653018342864769
3.0805555555555557,0.5546270027659028
3.0833333333333335,-0.7575752263839208
3.0861111111111112,0.6119624213512382
3.088888888888889,-0.999992284748445
3.091666666666667,0.7696042376635561
3.0944444444444446,-0.24349951011352047
3.0972222222222223,-0.6433799456886189
3.1,0.9841825382263163
3.102777777777778,0.4641004993173653
3.1055555555555556,-0.6898358552069912
3.1083333333333334,-0.003304231688098539
3.111111111111111,0.720517415340978
3.113888888888889,0.19414707555906724
3.1166666666666667,0.9917238646178025
3.1194444444444445,0.13934910055790523
3.1222222222222222,-0.8203559623909951
3.125,0.2724949657484544
3.1277777777777778,0.4390591887350156
3.1305555555555555,-0.19622295148844854
3.1333333333333333,0.9512469309542924
3.136111111111111,-0.6074750972058551
3.138888888888889,-0.9182576364838447
3.1416666666666666,0.21765408090513
3.1444444444444444,0.8381600504960911
3.147222222222222,-0.2965232923482413
3.15,0.9824183904903425
3.1527777777777777,-0.9768984520435513
3.155555555555556,0.9708778187775945
3.1583333333333337,-0.7428349953964632
3.1611111111111114,0.1749487316724292
3.163888888888889,0.9056136714361797
3.166666666666667,-0.7029376436366902
3.1694444444444447,0.04869842533381359
3.1722222222222225,0.9654951365674765
3.1750000000000003,0.42755146277100486
3.177777777777778,0.19282081911429813
3.180555555555556,-0.9006094412116856
3.1833333333333336,0.7638077210868858
3.1861111111111113,-0.0439710265267387
3.188888888888889,-0.9875177715005277
3.191666666666667,-0.8015102234863888
3.1944444444444446,0.9841361970340997
3.1972222222222224,-0.9280836734075659
3.2,0.8709931912343343
3.202777777777778,-0.5186976798502076
3.2055555555555557,-0.7920106957624375
3.2083333333333335,0.25032423339645193
3.2111111111111112,0.9468875490089901
3.213888888888889,-0.49157588552116166
3.216666666666667,0.46551867105912387
3.2194444444444446,-0.2715679963562778
3.2222222222222223,0.6269250637547684
3.225,-0.6980659639467333
3.227777777777778,0.9787681587051299
3.2305555555555556,-0.7828738153319436
3.2333333333333334,-0.16911088731590102
3.236111111111111,0.7414461024691847
3.238888888888889,-0.8334264008006593
3.2416666666666667,0.9994799959713032
3.2444444444444445,-0.8460194866203558
3.2472222222222222,-0.29545003281359455
3.25,-0.9999989845354539
3.2527777777777778,0.8831579550751072
3.2555555555555555,0.6805561019557347
3.2583333333333333,-0.9999519844083835
3.261111111111111,0.7799278943001953
3.263888888888889,0.9503342149866514
3.2666666666666666,-0.6351708616192914
3.2694444444444444,0.8505564399690516
3.272222222222222,0.5077156447952091
3.275,-0.9911682831663885
3.277777777777778,0.9510709190121633
3.280555555555556,-0.8569112955038443
3.2833333333333337,0.4456284336832546
3.2861111111111114,-0.6668008514595216
3.288888888888889,-0.35952266267440863
3.291666666666667,-0.09581002417901184
3.2944444444444447,0.12490368134685764
3.2972222222222225,-0.9965778681069601
3.3000000000000003,0.7008907512393666
3.302777777777778,-0.6579782884115749
3.305555555555556,0.34432968088268884
3.3083333333333336,-0.9504662843449412
3.3111111111111113,-0.49461153821484755
3.313888888888889,0.9571071555228575
3.316666666666667,-0.5761238142391882
3.3194444444444446,0.1773686842595164
3.3222222222222224,0.16076466719319701
3.325,0.22983943313468447
3.327777777777778,0.9895270905041319
3.3305555555555557,-0.8316301397453127
3.3333333333333335,-0.0019228351133924887
3.3361111111111112,-0.0327256172429432
3.338888888888889,-0.04567003201452635
3.341666666666667,0.2867151110540543
3.3444444444444446,0.6019542531016533
3.3472222222222223,-0.45749096707396886
3.35,0.897199078219258
3.352777777777778,0.9985220884965532
3.3555555555555556,0.1606584960867985
3.3583333333333334,-0.9999949971970756
3.361111111111111,0.9900844659006842
3.363888888888889,-0.9917853272981695
3.3666666666666667,0.928911761215269
3.3694444444444445,-0.936269228952043
3.3722222222222222,0.8345654966187052
3.375,-0.48381598743360876
3.3777777777777778,-0.9998848293295622
3.3805555555555555,0.3456324316383889
3.3833333333333333,-0.6468716484948959
3.386111111111111,0.32943075745543476
3.388888888888889,-0.023271817393522562
3.3916666666666666,-0.9780220087141795
3.3944444444444444,-0.9649744567874504
3.397222222222222,0.627234261302404
3.4,-0.9048680002352288
3.402777777777778,-0.9207260317343576
3.405555555555556,-0.04703153335458227
3.4083333333333337,0.7293202872056437
3.4111111111111114,-0.693815128262828
3.413888888888889,0.8879984186338413
3.416666666666667,-0.9119872806675136
3.4194444444444447,0.5836492152195245
3.4222222222222225,-0.8001290291374387
3.4250000000000003,0.657465147486199
3.427777777777778,0.5089455591928379
3.430555555555556,0.7873676519049138
3.4333333333333336,0.9567908068749094
3.4361111111111113,-0.6495196150071265
3.438888888888889,-0.924152706885937
3.441666666666667,0.22149609015408314
3.4444444444444446,-0.7076262607344357
3.4472222222222224,0.9988248781033425
3.45,0.9946768520821295
3.452777777777778,0.3332189264258357
3.4555555555555557,-0.15845555444231602
3.4583333333333335,-0.20984274493621008
3.4611111111111112,-0.5288703314359129
3.463888888888889,0.5876211863175278
3.466666666666667,0.9869173197287234
3.4694444444444446,-0.8842392784512023
3.4722222222222223,-0.16843055972247517
3.475,0.2729301152622427
3.477777777777778,-0.46007078243966265
3.4805555555555556,0.1762416344381552
3.4833333333333334,0.8222603218151783
3.486111111111111,0.30363120524983805
3.488888888888889,0.6675799293658913
3.4916666666666667,-0.7942186292033322
3.4944444444444445,0.8194420282107855
3.4972222222222222,-0.9371466704936284
3.5,0.9992855996836865
3.5027777777777778,-0.5103314632259119
3.5055555555555555,0.94407290534942
3.5083333333333333,0.9999326410373902
3.511111111111111,-0.6675534954328062
3.513888888888889,0.9927110237468911
3.5166666666666666,-0.9703771310524545
3.5194444444444444,-0.9542932627425945
3.522222222222222,0.6858413783080678
3.5250000000000004,-0.08541434527047666
3.527777777777778,0.16466527254770552
3.530555555555556,-0.5586557981654436
3.5333333333333337,-0.89022031020215
3.5361111111111114,0.9560416638460215
3.538888888888889,-0.842327673681876
3.541666666666667,-0.14601910976008825
3.5444444444444447,-0.9732737178605876
3.5472222222222225,0.9999991309118785
3.5500000000000003,0.3298586522164462
3.552777777777778,-0.4772336365467884
3.555555555555556,0.9802664694021611
3.5583333333333336,0.4896176411696412
3.5611111111111113,-0.5416618063248398
3.563888888888889,0.0645278233853719
3.566666666666667,-0.9684297736532602
3.5694444444444446,0.298208037136585
3.5722222222222224,-0.09601689326221866
3.575,0.13508082862472695
3.577777777777778,0.5015270597771498
3.5805555555555557,-0.5334566034458308
3.5833333333333335,0.9177837345485581
3.5861111111111112,-0.6040029392751687
3.588888888888889,0.05693197810093153
3.591666666666667,-0.4572128173150188
3.5944444444444446,-0.5713347106532285
3.5972222222222223,-0.054719495297709655
3.6,-0.7138242908274518
3.602777777777778,0.6643935239392409
3.6055555555555556,0.3792448356523937
3.6083333333333334,-0.4990740498474117
3.611111111111111,0.8333148864596517
3.613888888888889,-0.702747936862513
3.6166666666666667,-0.789653459847959
3.6194444444444445,0.9739729044468218
3.6222222222222222,-0.6408330169736625
3.625,-0.4181101357870446
3.6277777777777778,0.999745755193056
3.6305555555555555,-0.8580156542268925
3.6333333333333333,-0.47817714210636986
3.636111111111111,0.33410917382106675
3.638888888888889,-0.267437074356936
3.6416666666666666,-0.3023350954498486
3.6444444444444444,0.9880861219123463
3.647222222222222,0.2784364294567534
3.6500000000000004,-0.717443893421772
3.652777777777778,0.45889231080697707
3.655555555555556,0.8765771524499517
3.6583333333333337,-0.9008208712159756
3.6611111111111114,-0.14006006544901162
3.663888888888889,-0.5733922628860568
3.666666666666667,0.33759981340077816
3.6694444444444447,-0.9737561870491471
3.6722222222222225,0.9636260011235892
3.6750000000000003,-0.7002566530431601
3.677777777777778,0.997549661246354
3.680555555555556,-0.4245146966593202
3.6833333333333336,-0.9754624307418941
3.6861111111111113,0.8201118309014858
3.688888888888889,-0.748359165672144
3.691666666666667,0.5254336480096948
3.6944444444444446,0.1574324622660584
3.6972222222222224,-0.47392483301988814
3.7,-0.21578210902163478
3.702777777777778,-0.9913549155050179
3.7055555555555557,0.9989453606259472
3.7083333333333335,-0.0940345721300974
3.7111111111111112,0.6331735693831835
3.713888888888889,-0.9925029034379298
3.716666666666667,0.14218418637375976
3.7194444444444446,-0.5509894252922151
3.7222222222222223,-0.8886095193132871
3.725,0.9691767181435805
3.727777777777778,-0.556633097504352
3.7305555555555556,0.9996929311348303
3.7333333333333334,-0.548989349158732
3.736111111111111,0.5989968023371817
3.738888888888889,-0.9993985767702273
3.7416666666666667,0.21431356650038713
3.7444444444444445,0.6168092756076683
3.7472222222222222,0.8939910522761159
3.75,-0.9999935854992609
3.7527777777777778,0.8847808570968808
3.7555555555555555,-0.7374329917166729
3.7583333333333333,0.8723876757183019
3.761111111111111,-0.28254849078346117
3.763888888888889,0.12158956009217532
3.7666666666666666,0.709757051903547
3.7694444444444444,-0.23758112287158953
3.7722222222222226,-0.6413425056614209
3.7750000000000004,0.5029327260103345
3.777777777777778,0.9059384801857551
3.780555555555556,-0.9918038721359592
3.7833333333333337,0.5998880322563517
3.7861111111111114,-0.018531225559834576
3.788888888888889,-0.9881406326015619
3.791666666666667,-0.06078505130041816
3.7944444444444447,-0.6292636878859755
3.7972222222222225,-0.4138280043240091
3.8000000000000003,-0.3671635934610876
3.802777777777778,-0.9963631577431948
3.805555555555556,0.7814381215983188
3.8083333333333336,-0.8826609235927998
3.8111111111111113,0.16896309520334932
3.813888888888889,-0.9432298118877548
3.816666666666667,0.801817942851125
3.8194444444444446,-0.8872354629925329
3.8222222222222224,0.7740641489234413
3.825,0.9998115195300493
3.827777777777778,-0.9986554612113941
3.8305555555555557,-0.42715035175890953
3.8333333333333335,0.9949366752778088
3.8361111111111112,-0.9845599691333593
3.838888888888889,0.84361165951516
3.841666666666667,-0.907753078080979
3.8444444444444446,0.08870359001481089
3.8472222222222223,0.5470147319738791
3.85,-0.16618536297274375
3.852777777777778,0.376265553689351
3.8555555555555556,-0.10328631023538357
3.8583333333333334,-0.22517692103815323
3.861111111111111,-0.06594072414173742
3.863888888888889,0.4043440937092873
3.8666666666666667,0.5351685892727396
3.8694444444444445,-0.8090759096587564
3.8722222222222222,0.9910947332657357
3.875,-0.4906878528425624
3.8777777777777778,0.26365725540812934
3.8805555555555555,0.9843086517017084
3.8833333333333333,-0.4208166789684207
3.886111111111111,-0.5775659423308396
3.888888888888889,-0.994563718210553
3.8916666666666666,0.2508691350328735
3.8944444444444444,0.3743866380295546
3.8972222222222226,-0.15633943742137696
3.9000000000000004,0.08842646626782454
3.902777777777778,-0.013982895083373257
3.905555555555556,0.6558394864141774
3.9083333333333337,-0.1649917279873802
3.9111111111111114,0.21614092296588025
3.913888888888889,0.32861462119609774
3.916666666666667,-0.13476199581702428
3.9194444444444447,0.3756851394379529
3.9222222222222225,-0.7567963875505245
3.9250000000000003,0.44993664339971917
3.927777777777778,0.8753164051096929
3.930555555555556,-0.4127287208325581
3.9333333333333336,-0.8849692557273184
3.9361111111111113,-0.7651087008375536
3.938888888888889,0.9976111134129105
3.941666666666667,-0.9417811023949546
3.9444444444444446,-0.13869222159218614
3.9472222222222224,-0.8210921025876343
3.95,0.5598353431989813
3.952777777777778,-0.917107888814145
3.9555555555555557,-0.5320818745456801
3.9583333333333335,0.5703430616839364
3.9611111111111112,0.6775210259822205
3.963888888888889,-0.3145953534263643
3.966666666666667,0.7433448892760577
3.9694444444444446,-0.8419361010002333
3.9722222222222223,-0.14141359279773047
3.975,0.9898944876303827
3.977777777777778,-0.8542097940449802
3.9805555555555556,0.7576585383809673
3.9833333333333334,-0.7043831770711861
3.986111111111111,-0.9994347323515212
3.988888888888889,-0.7740121206235281
3.9916666666666667,0.8851684740198367
3.9944444444444445,0.9980419370362115
3.9972222222222222,-0.9120663124961227
4.0,0.014931136907171376
4.002777777777778,0.06321329317543052
4.0055555555555555,-0.7043244128485705
4.008333333333334,-0.07641837511866643
4.011111111111111,0.6436099942210542
4.013888888888889,-0.9999340209380636
4.016666666666667,0.19234739112993782
4.019444444444445,0.01284940719625509
4.022222222222222,-0.04429087041008988
4.025,0.5672472894649722
4.027777777777778,-0.5909087415506604
4.030555555555556,0.278418259646131
4.033333333333333,-0.3524151906598704
4.036111111111111,0.6085319393553068
4.038888888888889,0.9377594776691787
4.041666666666667,0.4858330637307351
4.044444444444444,-0.022851530052734253
4.0472222222222225,0.1514184420039762
4.05,-0.2203854024081869
4.052777777777778,0.7049908676069149
4.055555555555555,-0.10534817894218135
4.058333333333334,-0.7688179707828328
4.061111111111111,-0.17705410422748735
4.063888888888889,-0.44443003775477574
4.066666666666666,0.4653773139903228
4.069444444444445,0.9484228607499932
4.072222222222222,-0.8994182759986588
4.075,0.7278241230398108
4.0777777777777775,-0.2579334259519182
4.080555555555556,-0.7603545443292228
4.083333333333334,0.8018254362842805
4.086111111111111,-0.12784697471381626
4.0888888888888895,0.3861361960335184
4.091666666666667,0.7459896339231569
4.094444444444445,-0.5321447353737647
4.097222222222222,-0.2568803949748558
4.1000000000000005,0.1194273228995861
4.102777777777778,0.16466732834687478
4.105555555555556,-0.41867221359877266
4.108333333333333,-0.8577511252218172
4.111111111111112,0.8411438119630624
4.113888888888889,-0.28864165219690197
4.116666666666667,0.9215432193691803
4.1194444444444445,-0.8656017994254552
4.122222222222223,0.6841407064831553
4.125,0.13931000018231837
4.127777777777778,0.39098784955812654
4.1305555555555555,-0.27970017402467884
4.133333333333334,-0.879361037076475
4.136111111111111,0.3098701866746521
4.138888888888889,0.8438725928963533
4.141666666666667,-0.6311787529472125
4.144444444444445,-0.007430356963985146
4.147222222222222,-0.21540860567991232
4.15,-0.4588280042571974
4.152777777777778,0.9819170074027277
4.155555555555556,-0.5724706079834536
4.158333333333333,0.6658358143391121
4.161111111111111,0.30517696629218655
4.163888888888889,-0.4673912580809009
4.166666666666667,-0.473501071543493
4.169444444444444,-0.9575419669179771
4.1722222222222225,-0.04503627233033586
4.175,0.3307674968075255
4.177777777777778,-0.8586304473435658
4.180555555555555,0.4264763839792556
4.183333333333334,-0.8453437854554037
4.186111111111111,0.3695781190263345
4.188888888888889,-0.8166783708514935
4.191666666666666,-0.16318920286945185
4.194444444444445,0.8024954429761615
4.197222222222222,0.3635895685852525
4.2,-0.9900178630267308
4.2027777777777775,0.46293265029992064
4.205555555555556,0.3119341480560218
4.208333333333334,-0.32120047084694575
4.211111111111111,0.9382378502334734
4.2138888888888895,-0.2951695312939976
4.216666666666667,0.8318561740065507
4.219444444444445,-0.9838075705487409
4.222222222222222,0.364000530281365
4.2250000000000005,-0.6765268453564222
4.227777777777778,0.9819314135800877
4.230555555555556,-0.2951827730312101
4.233333333333333,-0.9952703294488894
4.236111111111112,0.42939085506554586
4.238888888888889,0.8582625946092558
4.241666666666667,-0.7793769040666727
4.2444444444444445,-0.5199642885144818
4.247222222222223,0.8865167657912696
4.25,0.8035031980407036
4.252777777777778,-0.9746958075548945
4.2555555555555555,0.8250397688242398
4.258333333333334,-0.927845500678147
4.261111111111111,0.5564384876000262
4.263888888888889,0.7276642369707081
4.266666666666667,-0.9760941182465213
4.269444444444445,0.16912201989451542
4.272222222222222,-0.9143077304755804
4.275,0.019901105215571126
4.277777777777778,-0.281065672365158
4.280555555555556,0.9352168571385274
4.283333333333333,-0.21245254852734474
4.286111111111111,-0.9340254432809063
4.288888888888889,-0.3256535246810898
4.291666666666667,0.7547853730570544
4.294444444444444,-0.9674494603624229
4.2972222222222225,0.845777440371696
4.3,-0.9456665703929468
4.302777777777778,0.9964471604308656
4.305555555555555,0.3335151949712262
4.308333333333334,0.906994764177771
4.311111111111111,0.2899874998332246
4.313888888888889,-0.8986529802993308
4.316666666666666,0.42076422375831835
4.319444444444445,-0.8124517423955829
4.322222222222222,0.5678369275604828
4.325,-0.9955223699400673
4.3277777777777775,0.9845916564139257
4.330555555555556,-0.8870520016404707
4.333333333333334,0.8986837176132851
4.336111111111111,-0.19192734108557205
4.3388888888888895,0.3467400302133435
4.341666666666667,-0.3579577412176733
4.344444444444445,0.962036615438451
4.347222222222222,-0.45248760842730457
4.3500000000000005,0.9992973893124001
4.352777777777778,-0.1842247721692704
4.355555555555556,0.8011889390150719
4.358333333333333,-0.09436228904772657
4.361111111111112,0.9263163618933353
4.363888888888889,-0.98115961346806
4.366666666666667,0.5669436204212082
4.3694444444444445,0.79969618487824
4.372222222222223,-0.9909333996937021
4.375,0.8218034788556591
4.377777777777778,-0.6193265851937767
4.3805555555555555,-0.26859119408737164
4.383333333333334,0.9806893632702708
4.386111111111111,-0.2162245538901752
4.388888888888889,-0.7303125427522568
4.391666666666667,0.9938097170823667
4.394444444444445,-0.9627840412485543
4.397222222222222,-0.5032604650471563
4.4,0.6783098847484875
4.402777777777778,-0.4829944380651601
4.405555555555556,0.9021596075585707
4.408333333333333,-0.018321229015025687
4.411111111111111,-0.9998652666342086
4.413888888888889,0.9420473860230849
4.416666666666667,-0.8333083462462889
4.419444444444444,-0.446717190693354
4.4222222222222225,-0.28190579565920804
4.425,0.9770335711636977
4.427777777777778,-0.3759689384703049
4.430555555555555,0.4443736964877696
4.433333333333334,0.6833633709398068
4.436111111111111,-0.568130700508412
4.438888888888889,0.8623849287070838
4.441666666666666,-0.7805789603018375
4.444444444444445,-0.13351602711768087
4.447222222222222,0.19557445335131662
4.45,-0.16279517866534762
4.452777777777778,-0.5902883089876534
4.455555555555556,-0.5070521683865663
4.458333333333334,0.9875662682690536
4.461111111111111,-0.9837434824836295
4.4638888888888895,0.35152074808485123
4.466666666666667,-0.8641042923962239
4.469444444444445,0.9365056743759584
4.472222222222222,-0.9561404477760395
4.4750000000000005,0.9774303608839653
4.477777777777778,-0.891913226458429
4.480555555555556,0.9740632262016927
4.483333333333333,-0.5139380377917342
4.486111111111112,-0.2744521630275632
4.488888888888889,0.9849316749359888
4.491666666666667,0.7383880594859207
4.4944444444444445,-0.8743973311568526
4.497222222222223,0.9848178543056292
4.5,0.23890000080302923
4.502777777777778,0.8895056550497089
4.5055555555555555,0.20594977721856464
4.508333333333334,0.16349193929946607
4.511111111111111,0.49009629414396794
4.513888888888889,0.6959671154504189
4.516666666666667,-0.981493948204484
4.519444444444445,-0.5923846157890459
4.522222222222222,0.979320151027623
4.525,-0.37486398255504805
4.527777777777778,-0.9429291132836883
4.530555555555556,0.21479290297626172
4.533333333333333,0.6827989957948056
4.536111111111111,-0.7165471839922548
4.538888888888889,0.022910457886668525
4.541666666666667,0.9996989250177638
4.544444444444444,0.40414985516184176
4.5472222222222225,-0.9608879273288252
4.55,-0.03939266443174157
4.552777777777778,-0.00828037475301335
4.555555555555555,0.13242343717255348
4.558333333333334,0.7752751124774281
4.561111111111111,0.2913804430933101
4.563888888888889,-0.9042056700714414
4.566666666666666,0.9357710990939425
4.569444444444445,0.492116134394283
4.572222222222222,-0.7291579608131032
4.575,0.2787118054208647
4.577777777777778,0.3439131704983503
4.580555555555556,-0.9797562817308723
4.583333333333334,-0.34380537319740767
4.586111111111111,0.9770583104648252
4.5888888888888895,-0.5719862636994095
4.591666666666667,0.9077017748113141
4.594444444444445,0.1448008779396295
4.597222222222222,-0.41026915130746544
4.6000000000000005,0.9978705016903912
4.602777777777778,0.466826147706765
4.605555555555556,-0.7398167393438624
4.608333333333333,-0.1542141092169032
4.611111111111112,-0.3763478745095927
4.613888888888889,0.922724443478375
4.616666666666667,0.3638679277625294
4.6194444444444445,-0.40750068317619625
4.622222222222223,0.6981671436050552
4.625,0.9696162625478646
4.627777777777778,-0.46858962088787753
4.6305555555555555,-0.8923740074512162
4.633333333333334,0.9870177326083285
4.636111111111111,-0.9119280090131088
4.638888888888889,-0.11270777714532715
4.641666666666667,-0.6321788860262865
4.644444444444445,0.7455013982942646
4.647222222222222,-0.6385241086804
4.65,0.8999243980624366
4.652777777777778,-0.9481599117488004
4.655555555555556,-0.9449394114610028
4.658333333333333,0.14456891381916284
4.661111111111111,-0.7971431877878081
4.663888888888889,0.7746517763507452
4.666666666666667,0.9516526135963861
4.669444444444444,-0.5182838285456337
4.6722222222222225,0.11164051440864703
4.675,0.34328788082650713
4.677777777777778,-0.9615437912716283
4.680555555555555,-0.674607721206888
4.683333333333334,0.9999615380255507
4.686111111111111,0.5382575775437686
4.688888888888889,0.9603071655291823
4.691666666666666,-0.9855109084661785
4.694444444444445,-0.9995469320386865
4.697222222222222,-0.8914721742114433
4.7,0.7995151798878265
4.702777777777778,0.1619584028549109
4.705555555555556,-0.3843087957059053
4.708333333333334,0.9702872728437056
4.711111111111111,-0.28380364418057646
4.7138888888888895,0.7308301996977083
4.716666666666667,0.23037334867708698
4.719444444444445,-0.6595998646368892
4.722222222222222,0.902452840217011
4.7250000000000005,-0.9841791711924516
4.727777777777778,0.8474206388264105
4.730555555555556,0.811125837607633
4.733333333333333,0.6165401532555921
4.736111111111112,-0.29353514480943865
4.738888888888889,0.3394337228932024
4.741666666666667,-0.1907735800720634
4.7444444444444445,0.8801380092385651
4.747222222222223,0.8566655651325408
4.75,-0.7010362960934144
4.752777777777778,0.9168397450723472
4.7555555555555555,-0.9407086734041616
4.758333333333334,0.6357714313388904
4.761111111111111,-0.7473617647960181
4.763888888888889,0.5178803283005653
4.766666666666667,-0.3307296316994171
4.769444444444445,0.897440684534268
4.772222222222222,-0.7930656775942473
4.775,0.996823546060108
4.777777777777778,0.8710057039310993
4.780555555555556,-0.7559047104080345
4.783333333333333,0.05051101122035427
4.786111111111111,-0.5208064968696109
4.788888888888889,0.19246423492142736
4.791666666666667,-0.8649878454381313
4.794444444444444,0.8765491029155619
4.7972222222222225,-0.8418802701777388
4.8,0.12654823361443526
4.802777777777778,0.5092421961111983
4.805555555555555,-0.4843844651349225
4.808333333333334,0.6614208586551076
4.811111111111111,-0.9715544435437657
4.813888888888889,0.9787276925273021
4.816666666666666,-0.7230440211816925
4.819444444444445,-0.20722957998950697
4.822222222222222,-0.2467573901348963
4.825,-0.6496040868066001
4.827777777777778,0.9690183054326033
4.830555555555556,-0.36172191704942025
4.833333333333334,0.12939658234379056
4.836111111111111,0.7953909839434872
4.8388888888888895,0.6015040657572367
4.841666666666667,0.6112512077199088
4.844444444444445,-0.28932670288830475
4.847222222222222,-0.9517683098029043
4.8500000000000005,0.6189874876891176
4.852777777777778,-0.37570278756000736
4.855555555555556,0.9974602077743883
4.858333333333333,-0.5274407131098908
4.861111111111112,0.9561148530773961
4.863888888888889,-0.7310584592616587
4.866666666666667,0.9684925613945586
4.8694444444444445,-0.9921902904676188
4.872222222222223,0.9927296084167698
4.875,-0.9164710749489635
4.877777777777778,-0.4665824047580641
4.8805555555555555,-0.9908095037177973
4.883333333333334,0.1391381440394016
4.886111111111111,0.9428499320147904
4.888888888888889,-0.9916626912261152
4.891666666666667,0.07187046398906631
4.894444444444445,-0.22559005920896238
4.897222222222222,0.8396796552905229
4.9,0.8831109338510726
4.902777777777778,-0.9925237470707272
4.905555555555556,-0.5498604031530925
4.908333333333333,-0.6166945931120271
4.911111111111111,0.9613819086406399
4.913888888888889,0.1589203818544083
4.916666666666667,-0.9802371220472281
4.919444444444444,-0.9390727554843898
4.9222222222222225,0.1815708653714175
4.925,-0.042325889457895935
4.927777777777778,-0.5749611796889409
4.930555555555555,0.11630738336414062
4.933333333333334,0.8227633175780112
4.936111111111111,-0.18257882574444523
4.938888888888889,0.9792190105175351
4.941666666666666,0.4562571635819283
4.944444444444445,0.2138620170367004
4.947222222222223,0.5656041539714385
4.95,-0.7445814282462684
4.952777777777778,-0.8269539027507685
4.955555555555556,-0.09901846081465272
4.958333333333334,-0.8115061267158019
4.961111111111111,0.7970804668010787
4.9638888888888895,-0.21442746461277296
4.966666666666667,-0.3560513518123068
4.969444444444445,0.9795116476787696
4.972222222222222,-0.011164749423829569
4.9750000000000005,0.9929417352334591
4.977777777777778,-0.04251543035947193
4.980555555555556,0.8286741029891278
4.983333333333333,-0.2260059495119868
4.986111111111112,0.9968859209682855
4.988888888888889,-0.618670916042235
4.991666666666667,-0.13216438755093135
4.9944444444444445,0.4696617472486432
4.997222222222223,-0.1780054378767759
5.0,-0.797548918102739
5.002777777777778,0.45389043488697156
5.0055555555555555,0.2800163615731164
5.008333333333334,-0.9984254584964056
5.011111111111111,0.9870379943951898
5.013888888888889,-0.2085012905892041
5.016666666666667,-0.7340656994277084
5.019444444444445,0.9891889188697427
5.022222222222222,-0.7819001340861755
5.025,0.5795576182775277
5.027777777777778,0.9965041530727513
5.030555555555556,-0.6401973910701615
5.033333333333333,-0.2803416580547749
5.036111111111111,0.7060083726722802
5.038888888888889,-0.3159341352756214
5.041666666666667,0.9890867793897437
5.044444444444444,-0.30489674047571047
5.0472222222222225,-0.8031232605922943
5.05,0.9495292996869061
5.052777777777778,-0.11489613184136141
5.055555555555555,-0.6813556880412767
5.058333333333334,0.012667463844433024
5.061111111111111,0.5771336471014842
5.063888888888889,-0.6829739260590333
5.066666666666666,-0.9762908827428196
5.069444444444445,-0.331634974019747
5.072222222222223,0.808440931212399
5.075,-0.7205290230482947
5.077777777777778,0.9132198847521644
5.080555555555556,0.5951435525359222
5.083333333333334,0.14050932260437057
5.086111111111111,0.7096197054962975
5.0888888888888895,-0.8693456204428595
5.091666666666667,-0.9043411312835609
5.094444444444445,0.7139265780856635
5.097222222222222,-0.8107539822082153
5.1000000000000005,0.69204831911621
5.102777777777778,-0.11641843619626585
5.105555555555556,0.34588795881193285
5.108333333333333,-0.5282605665503395
5.111111111111112,0.5413961531120888
5.113888888888889,-0.6476628022893555
5.116666666666667,0.4821061688927385
5.1194444444444445,0.932883685023492
5.122222222222223,0.039379845311252444
5.125,0.45699975151845473
5.127777777777778,-0.9413279579458833
5.1305555555555555,0.7890568206529553
5.133333333333334,-0.669001696597863
5.136111111111111,0.8355425134420956
5.138888888888889,0.9372137067604508
5.141666666666667,-0.48763550264972905
5.144444444444445,0.984811546396301
5.147222222222222,-0.5095018429521044
5.15,-0.4844986962463273
5.152777777777778,0.7822363800513387
5.155555555555556,-0.9994276138463667
5.158333333333333,-0.20038188752906425
5.161111111111111,-0.05511915418317249
5.163888888888889,0.9739255149946948
5.166666666666667,-0.9841790346991209
5.169444444444444,0.9954657364672316
5.1722222222222225,-0.9324128504125798
5.175,0.9778870674711436
5.177777777777778,-0.16614088224110066
5.180555555555555,-0.1291700195049466
5.183333333333334,0.31348873338580346
5.186111111111111,0.24651697402461958
5.188888888888889,0.4640367498651645
5.191666666666666,0.2218803380950115
5.194444444444445,-0.011056188605471405
5.197222222222223,0.2241230896974973
5.2,-0.8048714363686555
5.202777777777778,-0.3651626119961982
5.205555555555556,0.9984633917482953
5.208333333333334,0.35692675314034605
5.211111111111111,-0.9837389231827921
5.2138888888888895,-0.30892870477681933
5.216666666666667,0.705677010698911
5.219444444444445,-0.5699692944016376
5.222222222222222,0.6398409795332267
5.2250000000000005,-0.9588814105014358
5.227777777777778,0.577070719446083
5.230555555555556,0.9970259503351117
5.233333333333333,-0.8629417828022024
5.236111111111112,0.07709613752011343
5.238888888888889,0.9143887771061885
5.241666666666667,-0.9705496662760383
5.2444444444444445,0.8477507109286063
5.247222222222223,0.40216589991315094
5.25,-0.5010332792155437
5.252777777777778,0.9088795326240746
5.2555555555555555,-0.5261188919609397
5.258333333333334,0.9944131190187925
5.261111111111111,-0.401085407572188
5.263888888888889,-0.7252658268444171
5.266666666666667,0.6189499364155209
5.269444444444445,-0.7794033369548423
5.272222222222222,-0.6517815091446135
5.275,0.978103923058576
5.277777777777778,-0.8161166092405777
5.280555555555556,-0.9818135809231465
5.283333333333333,0.9438844814094176
5.286111111111111,-0.5007325075141766
5.288888888888889,0.23714356327881495
5.291666666666667,-0.5480407555741553
5.294444444444444,0.16380150554937256
5.2972222222222225,0.5333198636399678
5.3,0.24499664250387201
5.302777777777778,0.6486025534833436
5.305555555555555,-0.44885512380510695
5.308333333333334,0.8014029064882863
5.311111111111111,-0.5159636542376819
5.313888888888889,-0.8964395236708013
5.316666666666666,-0.6940029466704964
5.319444444444445,0.6896476717877364
5.322222222222223,0.8286457078254699
5.325,-0.06324646227275507
5.327777777777778,-0.9988555215426833
5.330555555555556,0.41567045481667064
5.333333333333334,-0.11955344652881818
5.336111111111111,0.21504833368961254
5.3388888888888895,0.537777893696477
5.341666666666667,0.8050677823517521
5.344444444444445,-0.2919157477319382
5.347222222222222,0.7841098439188865
5.3500000000000005,-0.4521864110953221
5.352777777777778,0.39038717150761615
5.355555555555556,-0.5536138734852025
5.358333333333333,-0.995653847963245
5.361111111111112,0.6708205145815057
5.363888888888889,0.1276979680563482
5.366666666666667,-0.9332687468480434
5.3694444444444445,0.33117615362080166
5.372222222222223,0.6546583967440864
5.375,-0.9822860128553916
5.377777777777778,0.9725859110978826
5.3805555555555555,-0.9009511334305179
5.383333333333334,0.2853549107607115
5.386111111111111,-0.7109692597564851
5.388888888888889,-0.4992746228421486
5.391666666666667,0.9173077141851301
5.394444444444445,-0.9113458325883819
5.397222222222222,-0.4251561477526176
5.4,0.6074477347122405
5.402777777777778,-0.4774222383336632
5.405555555555556,0.6198776223224854
5.408333333333333,-0.8270035784546037
5.411111111111111,0.37194147999269944
5.413888888888889,-0.9996716073895596
5.416666666666667,0.20549706064530482
5.419444444444444,-0.6386355277319207
5.4222222222222225,0.19041538057121504
5.425,0.6425851424746265
5.427777777777778,-0.9980190532028369
5.430555555555555,0.9304980221421915
5.433333333333334,0.4717142152002112
5.436111111111111,-0.9917791581321083
5.438888888888889,0.18602865131389368
5.441666666666667,-0.9962683087942205
5.444444444444445,0.6029547097754376
5.447222222222223,-0.9999290003994916
5.45,-0.20767285338654942
5.452777777777778,0.9672426397038882
5.455555555555556,0.2167934682119014
5.458333333333334,-0.03517224317940732
5.461111111111111,0.6480055908262169
5.4638888888888895,-0.9007560599321918
5.466666666666667,0.7103226518315445
5.469444444444445,0.44075274942780873
5.472222222222222,0.10712767353453467
5.4750000000000005,-0.9370214005957868
5.477777777777778,-0.1595619520747749
5.480555555555556,0.9770522458441239
5.483333333333333,-0.953361633860241
5.486111111111112,0.9869488346496779
5.488888888888889,-0.76486386903863
5.491666666666667,0.42682193682519337
5.4944444444444445,-0.1565448575638969
5.497222222222223,-0.9848476504102797
5.5,0.39677367971575767
5.502777777777778,0.014512864636975143
5.5055555555555555,0.9923493230413415
5.508333333333334,-0.6574598599769093
5.511111111111111,0.9990252145133918
5.513888888888889,-0.012865079081911746
5.516666666666667,-0.6875168857995428
5.519444444444445,0.7274406288201194
5.522222222222222,-0.9783361964284065
5.525,0.9070621681330377
5.527777777777778,-0.8826244434636842
5.530555555555556,0.35504099235968317
5.533333333333333,-0.1886247214367032
5.536111111111111,-0.9403428665529103
5.538888888888889,0.4080109589895438
5.541666666666667,-0.15834927474967253
5.544444444444444,-0.9954283035373507
5.5472222222222225,0.9635583618722491
5.55,-0.003946647270603958
5.552777777777778,-0.9865051456987391
5.555555555555555,0.9393060082588331
5.558333333333334,0.7085822283574186
5.561111111111111,0.1169629768449716
5.563888888888889,-0.6859151902956905
5.566666666666667,0.4681533433718661
5.569444444444445,-0.2535984047639229
5.572222222222223,0.9546807889700635
5.575,-0.8107006030978121
5.577777777777778,0.40758823889961376
5.580555555555556,-0.9998612907393221
5.583333333333334,0.4672440692145066
5.586111111111111,-0.6765374115123418
5.5888888888888895,0.9924543314971163
5.591666666666667,-0.5147724815017217
5.594444444444445,0.897010430507055
5.597222222222222,0.08081277649587468
5.6000000000000005,0.17319083020307385
5.602777777777778,0.32736201524401515
5.605555555555556,-0.8411161004426325
5.608333333333333,0.5568588315080997
5.611111111111112,0.9500796819189097
5.613888888888889,-0.22790740803865914
5.616666666666667,-0.5896490423085453
5.6194444444444445,0.6582445556490799
5.622222222222223,-0.8662495191879152
5.625,0.3546315548767686
5.627777777777778,-0.40097364999713964
5.6305555555555555,0.9824855901630336
5.633333333333334,-0.34951549999956444
5.636111111111111,0.18434559113982238
5.638888888888889,-0.8830452611066226
5.641666666666667,0.802775602400736
5.644444444444445,0.9949915379700386
5.647222222222222,-0.953130410194314
5.65,-0.5698288387886363
5.652777777777778,0.9993481366815858
5.655555555555556,0.3128361913146235
5.658333333333333,-0.9621194006700857
5.661111111111111,0.9763263479162486
5.663888888888889,-0.9959659835218664
5.666666666666667,0.9042984941444077
5.669444444444444,-0.8554822042137233
5.6722222222222225,0.22394373166926682
5.675,0.6795586027707345
5.677777777777778,-0.9965144532917898
5.680555555555555,0.9671373108210272
5.683333333333334,-0.9928277110603694
5.686111111111111,0.4244275333614203
5.688888888888889,-0.6263540479568939
5.691666666666667,-0.3546015931146037
5.694444444444445,-0.24441241212152423
5.697222222222223,0.865452872750689
5.7,-0.8233075802162817
5.702777777777778,-0.6316265450658867
5.705555555555556,-0.9523371421372618
5.708333333333334,-0.4578511348021226
5.711111111111111,-0.15034552730394285
5.7138888888888895,0.9813783544285594
5.716666666666667,-0.9999557557338002
5.719444444444445,-0.7616606708180064
5.722222222222222,0.8118464737320953
5.7250000000000005,-0.7490891935974386
5.727777777777778,-0.002013328902357956
5.730555555555556,-0.9343836721776254
5.733333333333333,0.9770341593146632
5.736111111111112,-0.7338334934117349
5.738888888888889,0.706052659796584
5.741666666666667,-0.0440844482003231
5.7444444444444445,-0.5602128215101824
5.747222222222223,-0.2209283222890464
5.75,-0.2832185083058785
5.752777777777778,0.1669801527521109
5.7555555555555555,-0.7559550502993038
5.758333333333334,0.9642052712995336
5.761111111111111,0.8577268901908864
5.763888888888889,-0.780921062344882
5.766666666666667,0.3994505688120258
5.769444444444445,-0.9939640702751966
5.772222222222222,0.9794200222925776
5.775,-0.9095088109462589
5.777777777777778,-0.11862323751257786
5.780555555555556,-0.12954310401425223
5.783333333333333,0.8902804377563772
5.786111111111111,-0.9234058553883097
5.788888888888889,0.6144908029513727
5.791666666666667,-0.2744081021980568
5.794444444444444,-0.5549139640809045
5.7972222222222225,0.9794293618147388
5.8,-0.6997664009936506
5.802777777777778,0.36453182943984275
5.805555555555555,0.6279557692853311
5.808333333333334,-0.03236673773277247
5.811111111111111,0.9264643870145209
5.813888888888889,0.21383483072338627
5.816666666666667,0.45814101772082155
5.819444444444445,0.15096733324308168
5.822222222222223,0.7559539341099282
5.825,-0.9858271565284135
5.827777777777778,-0.0243966236381488
5.830555555555556,-0.7275874349160749
5.833333333333334,0.4956769321221988
5.836111111111111,-0.9935584776482428
5.8388888888888895,0.8429779690257666
5.841666666666667,0.18647436752865862
5.844444444444445,-0.9167715279306935
5.847222222222222,0.5029828364115162
5.8500000000000005,-0.9744113067249351
5.852777777777778,0.2651889846250213
5.855555555555556,-0.7013706533259327
5.858333333333333,0.9283665036070564
5.861111111111112,-0.5127403837324012
5.863888888888889,-0.8824498598532414
5.866666666666667,-0.6918306881793377
5.8694444444444445,0.6475866106466724
5.872222222222223,-0.18140414092377813
5.875,0.9927096210509975
5.877777777777778,0.9990567393868945
5.8805555555555555,-0.5991517824162969
5.883333333333334,-0.3039331667924374
5.886111111111111,0.6424148458083683
5.888888888888889,-0.8008001795451565
5.891666666666667,0.7247177428286702
5.894444444444445,-0.9983593835640171
5.897222222222222,0.00211573796403587
5.9,0.20997763896621238
5.902777777777778,-0.5906368551134903
5.905555555555556,0.9895490846050793
5.908333333333333,-0.25834115566622873
5.911111111111111,-0.7943834856618145
5.913888888888889,0.5265495671953341
5.916666666666667,-0.8911475895627422
5.919444444444444,0.0069808944728492394
5.9222222222222225,0.8774344589692307
5.925,-0.9296176131160384
5.927777777777778,0.9445633009893972
5.930555555555555,-0.1387289155347076
5.933333333333334,0.09624018317917701
5.936111111111111,-0.7543857541819512
5.938888888888889,0.9787497026115463
5.941666666666667,-0.2355033708729284
5.944444444444445,0.87030838978324
5.947222222222223,-0.6611496728429812
5.95,-0.3517656384269406
5.952777777777778,0.8123295647535796
5.955555555555556,-0.9926985259470873
5.958333333333334,0.7791447672114103
5.961111111111111,0.9726462203862859
5.9638888888888895,-0.3873655832302374
5.966666666666667,-0.6728256770650403
5.969444444444445,-0.9322004958299176
5.972222222222222,0.15020572027834564
5.9750000000000005,-0.5002438521953059
5.977777777777778,-0.5172405535809094
5.980555555555556,-0.14169543503776755
5.983333333333333,-0.9994411220319257
5.986111111111112,0.0591017173120995
5.988888888888889,-0.4995903618506218
5.991666666666667,0.9983591308123662
5.9944444444444445,-0.16993243786217616
5.997222222222223,0.99459139883389
6.0,-0.09558235259051116
6.002777777777778,-0.47577361502832966
6.0055555555555555,0.8308703230517813
6.008333333333334,-0.7909282067869255
6.011111111111111,0.4307136668720742
6.013888888888889,0.05374662467310904
6.016666666666667,-0.5032512627914727
6.019444444444445,0.5904876546331035
6.022222222222222,-0.3610976357187117
6.025,-0.9853404672679257
6.027777777777778,0.8221273891921386
6.030555555555556,-0.9949277555304614
6.033333333333333,0.25596945498862295
6.036111111111111,0.08380518538559256
6.038888888888889,-0.8563367512997251
6.041666666666667,-0.27914808795699
6.044444444444444,0.5730794543063228
6.0472222222222225,-0.23640142738626616
6.05,0.9580783664862745
6.052777777777778,-0.9915738525468312
6.055555555555555,0.7129189505931038
6.058333333333334,-0.4800248433455679
6.061111111111112,0.29374871214480053
6.063888888888889,0.44774939705167505
6.066666666666667,-0.9518483089948957
6.069444444444445,0.9799708676338845
6.072222222222223,0.935800720592921
6.075,-0.9973470546336133
6.077777777777778,0.9486506433065305
6.080555555555556,-0.2761093750326454
6.083333333333334,-0.9851335441021023
6.086111111111111,0.34011926703567663
6.0888888888888895,0.9882830390046441
6.091666666666667,-0.7341070133305745
6.094444444444445,-0.036102779648592154
6.097222222222222,0.9553265149591983
6.1000000000000005,0.06127537992047337
6.102777777777778,-0.9231512970425644
6.105555555555556,0.21294161680846868
6.108333333333333,0.9686802222849609
6.111111111111112,-0.5319968288757732
6.113888888888889,-0.8751235639058287
6.116666666666667,0.9994517297605181
6.1194444444444445,0.49447405349852197
6.122222222222223,-0.9307321318852406
6.125,0.9490447224746306
6.127777777777778,-0.8661888274760005
6.1305555555555555,-0.2485442473387071
6.133333333333334,-0.24944544705536337
6.136111111111111,0.16897620789198567
6.138888888888889,0.921799638637302
6.141666666666667,-0.8925930948620144
6.144444444444445,0.5847954397803719
6.147222222222222,-0.9497435341576981
6.15,0.9027044263031856
6.152777777777778,0.9827289737383416
6.155555555555556,-0.8725035496223001
6.158333333333333,0.9394331272080896
6.161111111111111,-0.6419985103045222
6.163888888888889,0.3404400672839455
6.166666666666667,0.43334933996520153
6.169444444444444,0.26585624175998585
6.1722222222222225,0.9978820119937014
6.175,-0.7377873720160454
6.177777777777778,0.3209953421500654
6.180555555555555,-0.8805759295212842
6.183333333333334,0.9434443728262069
6.186111111111112,-0.9162183114806302
6.188888888888889,0.013772079869785863
6.191666666666667,-0.5965999055237241
6.194444444444445,-0.37039354792380147
6.197222222222223,0.9818255499854254
6.2,-0.08151235624827254
6.202777777777778,0.09644512259822288
6.205555555555556,-0.9686892704727716
6.208333333333334,-0.8263915059800314
6.211111111111111,-0.9327936669887363
6.2138888888888895,0.8864883181206826
6.216666666666667,0.36940096756137336
6.219444444444445,0.7154185503128486
6.222222222222222,-0.6227482461224083
6.2250000000000005,-0.42539708829854017
6.227777777777778,-0.5595588519103663
6.230555555555556,0.8410641939782704
6.233333333333333,-0.5104005763482734
6.236111111111112,0.7491960282628262
6.238888888888889,-0.6831921924956948
6.241666666666667,0.999991935860884
6.2444444444444445,-0.2113185615894835
6.247222222222223,0.568162681164325
6.25,0.16302150169501048
6.252777777777778,-0.8344147289307521
6.2555555555555555,0.9957716097925933
6.258333333333334,-0.18509227706273834
6.261111111111111,0.7435773308264364
6.263888888888889,-0.9964289476949953
6.266666666666667,0.7383371462007406
6.269444444444445,0.8242255587464384
6.272222222222222,-0.8059668116338801
6.275,0.7751005425247758
6.277777777777778,0.7078790852638281
6.280555555555556,-0.5372188995382688
6.283333333333333,0.28393427201693594
6.286111111111111,0.2932417221992676
6.288888888888889,-0.9890446357275348
6.291666666666667,-0.8529259080737267
6.294444444444444,0.9219798480991134
6.2972222222222225,0.3577211612702247
6.3,0.6172620529148722
6.302777777777778,-0.48789745103006793
6.305555555555555,0.34732803620199404
6.308333333333334,0.026381905347223983
6.311111111111112,0.9969771175038067
6.313888888888889,0.004309250468782113
6.316666666666667,-0.13501890813434111
6.319444444444445,0.9345454906483907
6.322222222222223,-0.913317802406003
6.325,0.06380019439389957
6.327777777777778,-0.989071362488398
6.330555555555556,0.620231652448083
6.333333333333334,0.8727744699747125
6.336111111111111,0.4930192019463055
6.3388888888888895,0.36749323127962585
6.341666666666667,0.6303222184637384
6.344444444444445,-0.7854820880040758
6.347222222222222,0.5435716036383962
6.3500000000000005,0.9323081394336287
6.352777777777778,-0.9814410708120397
6.355555555555556,-0.3952445398061734
6.358333333333333,0.6359292051562183
6.361111111111112,0.9193858129109672
6.363888888888889,-0.6632451990182008
6.366666666666667,-0.7032855276344979
6.3694444444444445,0.7134788825432961
6.372222222222223,-0.9385080573179583
6.375,0.7662835869246646
6.377777777777778,-0.9775176146010239
6.3805555555555555,0.3596297533238317
6.383333333333334,0.1656981019075044
6.386111111111111,-0.9919958566739324
6.388888888888889,-0.0023109791670173022
6.391666666666667,-0.8373826768764097
6.394444444444445,-0.22848233938005694
6.397222222222222,0.22261693180972586
6.4,-0.7393589222907332
6.402777777777778,-0.9763980215339175
6.405555555555556,0.908608092636927
6.408333333333333,-0.9905612478196235
6.411111111111111,0.4897697092471704
6.413888888888889,0.9995840985021268
6.416666666666667,-0.9986395211483029
6.419444444444444,-0.8628693523951044
6.4222222222222225,-0.24074595139043636
6.425,0.9989283742059201
6.427777777777778,-0.13053389196081522
6.430555555555555,0.988702661103243
6.433333333333334,0.3118875445726033
6.436111111111112,-0.4817750837118795
6.438888888888889,0.9998327140416224
6.441666666666667,-0.49579596087061817
6.444444444444445,-0.11955263627616688
6.447222222222223,0.7518226471079468
6.45,-0.962906495188205
6.452777777777778,0.9738730097042513
6.455555555555556,-0.9999883366496325
6.458333333333334,0.37201470135928083
6.461111111111111,0.9957972927417175
6.4638888888888895,-0.8102336646685194
6.466666666666667,-0.8573909865227265
6.469444444444445,0.9674978610440258
6.472222222222222,-0.6064562794846434
6.4750000000000005,0.8586454131339305
6.477777777777778,-0.6696785003507519
6.480555555555556,0.26887634797563725
6.483333333333333,-0.49034086677280325
6.486111111111112,-0.6295614001180385
6.488888888888889,0.5448870373409713
6.491666666666667,0.9716635278155279
6.4944444444444445,-0.3824751782073387
6.497222222222223,-0.013710278743573431
6.5,-0.9674968356856554
6.502777777777778,-0.25588039193234524
6.5055555555555555,0.22133126197883293
6.508333333333334,0.18827558140539702
6.511111111111111,0.9824587541038571
6.513888888888889,-0.6611673837083559
6.516666666666667,-0.4094475147252306
6.519444444444445,0.8671463918240679
6.522222222222222,-0.9525942059982089
6.525,0.6281583415835611
6.527777777777778,0.9859080608673174
6.530555555555556,-0.8764346810107185
6.533333333333333,0.7418597318621117
6.536111111111111,-0.9775282147878528
6.538888888888889,0.03660571595638716
6.541666666666667,0.45162997890324197
6.544444444444444,0.020347015151430174
6.5472222222222225,-0.262263616112964
6.55,-0.18447242976226794
6.552777777777778,0.4653267600420141
6.555555555555556,-0.5426825940345786
6.558333333333334,-0.9379337948123851
6.561111111111112,0.9674345641226973
6.563888888888889,-0.9933895906336944
6.566666666666667,0.9788627182295909
6.569444444444445,-0.6563027941952817
6.572222222222223,0.18016788293939995
6.575,-0.08052056174280858
6.577777777777778,-0.9178421257371028
6.580555555555556,0.9938604880090537
6.583333333333334,-0.9250967152426165
6.586111111111111,0.8523072941774077
6.5888888888888895,-0.9214251043084501
6.591666666666667,0.6979901904698255
6.594444444444445,-0.5246614756759831
6.597222222222222,0.9614650343120762
6.6000000000000005,-0.6784883181294945
6.602777777777778,0.9815181848915197
6.605555555555556,-0.8539598959406821
6.608333333333333,0.6851063398095282
6.611111111111112,0.12421645742976269
6.613888888888889,0.46949972058286304
6.616666666666667,-0.9838990759942222
6.6194444444444445,0.399308541022969
6.622222222222223,-0.581790058014005
6.625,-0.06079733172704616
6.627777777777778,0.9976393712713285
6.6305555555555555,-0.9999009645366761
6.633333333333334,0.5930239503381768
6.636111111111111,-0.6650500166810586
6.638888888888889,-0.10548728675235436
6.641666666666667,0.4709532370115506
6.644444444444445,-0.9203146466808353
6.647222222222222,-0.6378444790463896
6.65,0.999352295056673
6.652777777777778,0.3504962140790396
6.655555555555556,-0.3200232469883724
6.658333333333333,0.2710351899662503
6.661111111111111,0.8097903948112776
6.663888888888889,-0.6534761452692499
6.666666666666667,0.6351965475248712
6.669444444444444,-0.5503655268120123
6.6722222222222225,0.6042695621550223
6.675,-0.9340257776189839
6.677777777777778,0.9794398606728959
6.680555555555556,-0.014717738308803675
6.683333333333334,0.9921602909856768
6.686111111111112,0.9813164672555923
6.688888888888889,-0.9709837666835693
6.691666666666667,0.9920148333339412
6.694444444444445,-0.6072110116112223
6.697222222222223,0.9992024280988981
6.7,-0.8610520879009209
6.702777777777778,0.9944831355414476
6.705555555555556,-0.4640954473547692
6.708333333333334,-0.660419039373726
6.711111111111111,0.9355374989586085
6.7138888888888895,-0.3843283537658243
6.716666666666667,0.7946735964999154
6.719444444444445,0.5639974906528264
6.722222222222222,-0.9982389929130034
6.7250000000000005,0.9690304074259167
6.727777777777778,0.38284046893703455
6.730555555555556,0.4079013347305068
6.733333333333333,0.34811656062599017
6.736111111111112,-0.9182942515342387
6.738888888888889,0.7678529525420881
6.741666666666667,-0.29475847427712454
6.7444444444444445,0.8059907000741285
6.747222222222223,-0.7771348203150469
6.75,0.42616807470868445
6.752777777777778,-0.9572790261048814
6.7555555555555555,0.6384782025466458
6.758333333333334,0.40446376193766964
6.761111111111111,-0.7474732998457858
6.763888888888889,0.6035867026808218
6.766666666666667,-0.6731824693636764
6.769444444444445,0.49206589015574614
6.772222222222222,0.9431895369208844
6.775,-0.7223709931212456
6.777777777777778,0.9699222797375385
6.780555555555556,0.1585297262248633
6.783333333333333,0.8999792474464753
6.786111111111111,-0.2134390630515224
6.788888888888889,0.9821206474102723
6.791666666666667,-0.9906009885052025
6.794444444444444,-0.5305955462934134
6.7972222222222225,0.5976819666079033
6.8,0.8970403562237211
6.802777777777778,0.9794558510988814
6.805555555555556,-0.5962656479644709
6.808333333333334,-0.781995204208806
6.811111111111112,0.9859056176159893
6.813888888888889,0.32542548364520263
6.816666666666667,-0.7599325161181955
6.819444444444445,-0.6851676780961956
6.822222222222223,0.6943506774042736
6.825,-0.4486709739012706
6.827777777777778,0.14658279929875007
6.830555555555556,0.9486095575475855
6.833333333333334,0.2590325805676581
6.836111111111111,-0.6985151953226091
6.8388888888888895,-0.6086584867347824
6.841666666666667,0.9999641089588537
6.844444444444445,-0.8979642095980572
6.847222222222222,0.7880098748021073
6.8500000000000005,-0.9742393437183402
6.852777777777778,-0.9714240864135865
6.855555555555556,0.9941629958333772
6.858333333333333,0.603715803622699
6.861111111111112,-0.03931404434392221
6.863888888888889,0.9803046621425217
6.866666666666667,0.6621561973342991
6.8694444444444445,0.6089851624908456
6.872222222222223,-0.9986772208017143
6.875,0.002125653015604544
6.877777777777778,-0.8745593797481992
6.8805555555555555,0.2738853590350859
6.883333333333334,-0.5639844457416275
6.886111111111111,0.4400937759396752
6.888888888888889,-0.9522749707770904
6.891666666666667,0.9999994924164879
6.894444444444445,-0.8774180922386925
6.897222222222222,-0.3344074927179029
6.9,0.9809972763076776
6.902777777777778,-0.9997538912975663
6.905555555555556,0.5526006045903293
6.908333333333333,-0.4881370161134475
6.911111111111111,-0.9122323977439011
6.913888888888889,0.7021070419312276
6.916666666666667,-0.6227210713378596
6.919444444444444,0.4359025288269789
6.9222222222222225,0.8947371975395956
6.925,-0.9573310319455912
6.927777777777778,-0.0716073906323651
6.930555555555556,-0.6757356584281995
6.933333333333334,-0.5241974823266164
6.936111111111112,-0.9499836806318586
6.938888888888889,0.5997641523347584
6.941666666666667,-0.768881613688645
6.944444444444445,0.8333543601909823
6.947222222222223,-0.3206537055899768
6.95,-0.9208301431375524
6.952777777777778,0.9706115515255883
6.955555555555556,0.9998405912196412
6.958333333333334,0.513874457396018
6.961111111111111,0.8665150179607584
6.9638888888888895,-0.6830266039133578
6.966666666666667,0.7218299382683272
6.969444444444445,-0.8595100909918645
6.972222222222222,0.9118578482652194
6.9750000000000005,-0.9213069793172782
6.977777777777778,-0.5470237155233404
6.980555555555556,-0.9049231980066738
6.983333333333333,0.11234829057494326
6.986111111111112,-0.47595261176100956
6.988888888888889,0.7318675999682459
6.991666666666667,0.3432966359025262
6.9944444444444445,0.8772489433528515
6.997222222222223,-0.9810216629290003
7.0,-0.9851960039705825
7.002777777777778,-0.7754401311241096
7.0055555555555555,-0.6899432151012641
7.008333333333334,0.7052367892393607
7.011111111111111,0.12404731766650767
7.013888888888889,-0.6997997604748474
7.016666666666667,-0.3528214584492473
7.019444444444445,-0.7173950705908594
7.022222222222222,0.9308491981556585
7.025,-0.6351581092067222
7.027777777777778,-0.8204109474165683
7.030555555555556,-0.1910954721841342
7.033333333333333,0.38147759290572475
7.036111111111111,-0.6205617686127956
7.038888888888889,0.9577018098922708
7.041666666666667,0.20957396548677246
7.044444444444444,0.3935020420014568
7.0472222222222225,0.4123075146855847
7.050000000000001,0.6164018387770316
7.052777777777778,-0.9666887869097223
7.055555555555556,0.8993544150907202
7.058333333333334,-0.8808230037126932
7.061111111111112,0.7283324743924784
7.063888888888889,-0.5084023460877682
7.066666666666667,0.5107506528332167
7.069444444444445,-0.3849978317275175
7.072222222222223,0.9769124199492377
7.075,0.6822982119728344
7.077777777777778,-0.0734521786910149
7.080555555555556,0.8681931682905827
7.083333333333334,-0.8175418095898672
7.086111111111111,-0.037822488426409694
7.0888888888888895,-0.9982521243337532
7.091666666666667,0.31111931684811445
7.094444444444445,0.6237871821370528
7.097222222222222,-0.6072640024017565
7.1000000000000005,0.9733689500077785
7.102777777777778,0.6176496761683661
7.105555555555556,-0.9361255256993168
7.108333333333333,0.8283197169626993
7.111111111111112,0.9531934481899411
7.113888888888889,0.16257497553955802
7.116666666666667,-0.9315455018889127
7.1194444444444445,-0.2074880190697468
7.122222222222223,-0.9353602568318109
7.125,0.8394318724261085
7.127777777777778,-0.11188635556891346
7.1305555555555555,0.2782176459545176
7.133333333333334,-0.7080924278183264
7.136111111111111,-0.22829341170563633
7.138888888888889,-0.9432322358426624
7.141666666666667,0.9927699356600963
7.144444444444445,-0.5604762444205893
7.147222222222222,-0.8858319869588898
7.15,0.7902789601877721
7.152777777777778,-0.9667350608031375
7.155555555555556,0.4561977654083633
7.158333333333333,0.2914355323604484
7.161111111111111,-0.29041626526889025
7.163888888888889,0.9463431938897398
7.166666666666667,-0.9768833097521841
7.169444444444444,0.9203803346983859
7.1722222222222225,0.3537928659496494
7.175000000000001,0.11109999396285615
7.177777777777778,0.4850085695773948
7.180555555555556,-0.888127045035886
7.183333333333334,-0.30137316456822705
7.186111111111112,0.7830492909582456
7.188888888888889,-0.6199423886887921
7.191666666666667,0.5405360289567517
7.194444444444445,0.10718153992694282
7.197222222222223,0.4621302987523325
7.2,0.6898446868279041
7.202777777777778,0.29997629890408667
7.205555555555556,0.6033393740527603
7.208333333333334,-0.7829552243184412
7.211111111111111,0.18923708303064996
7.2138888888888895,0.9967618428776021
7.216666666666667,0.21090394605187415
7.219444444444445,-0.17591331063826537
7.222222222222222,-0.5019763290848429
7.2250000000000005,0.9761324712205873
7.227777777777778,-0.9174541235516447
7.230555555555556,-0.7025645337306179
7.233333333333333,0.951072874480111
7.236111111111112,-0.9555229070764452
7.238888888888889,0.8421282099186566
7.241666666666667,-0.7419336742755942
7.2444444444444445,0.646031344322495
7.247222222222223,-0.6433426966089004
7.25,-0.8060134457791589
7.252777777777778,0.9976985629600957
7.2555555555555555,-0.9763996132982276
7.258333333333334,0.8672071641651589
7.261111111111111,-0.6547277367369454
7.263888888888889,-0.9945748873365452
7.266666666666667,0.16473195026480583
7.269444444444445,-0.5561608966065148
7.272222222222222,0.11792125954786425
7.275,0.4293380471548863
7.277777777777778,-0.9353845990381415
7.280555555555556,-0.9436614560675273
7.283333333333333,0.5162875366260277
7.286111111111111,-0.9339890033808655
7.288888888888889,0.7147532712062585
7.291666666666667,0.42662017236246846
7.294444444444444,-0.9323908502137975
7.2972222222222225,0.9950084363943104
7.300000000000001,-0.9483467345092736
7.302777777777778,0.013215636006474914
7.305555555555556,0.5944983099295583
7.308333333333334,-0.999161363806248
7.311111111111112,0.539955828064367
7.313888888888889,-0.9890551304201065
7.316666666666667,-0.154725495532482
7.319444444444445,-0.8124353962209482
7.322222222222223,0.005720916030078319
7.325,-0.9977266278133604
7.327777777777778,0.8779931013006129
7.330555555555556,0.8956815515362546
7.333333333333334,0.2969783759836278
7.336111111111111,-0.8993696944411619
7.3388888888888895,0.9857619913597203
7.341666666666667,-0.749555563806255
7.344444444444445,-0.029860787947525363
7.347222222222222,0.5320322313693172
7.3500000000000005,-0.8067079969131008
7.352777777777778,-0.4608225689119282
7.355555555555556,0.0902575341867515
7.358333333333333,0.5095987867408849
7.361111111111112,-0.9932821354868032
7.363888888888889,0.39716269560006595
7.366666666666667,-0.9905668943717493
7.3694444444444445,0.9982010168597072
7.372222222222223,0.9892535190626964
7.375,-0.9982183064980757
7.377777777777778,-0.10853749308244116
7.3805555555555555,0.8757064957701198
7.383333333333334,0.18635978198869846
7.386111111111111,-0.11701035039517918
7.388888888888889,-0.31610683943425344
7.391666666666667,0.84230754868916
7.394444444444445,-0.8437725349452038
7.397222222222222,0.4610841413432816
7.4,-0.7186421205389091
7.402777777777778,0.7091880072591146
7.405555555555556,0.5508473801407271
7.408333333333333,-0.9972837134643032
7.411111111111111,0.9816873069172395
7.413888888888889,-0.8597892311770767
7.416666666666667,-0.36081109103198344
7.419444444444444,0.9927627837348802
7.4222222222222225,-0.24933965346815296
7.425000000000001,-0.6792096042691277
7.427777777777778,0.5778574963149912
7.430555555555556,0.91025909906615
7.433333333333334,-0.5360223994597306
7.436111111111112,0.9991995249030658
7.438888888888889,-0.9116249863702345
7.441666666666667,0.9854492870116671
7.444444444444445,-0.6137686716202352
7.447222222222223,0.9742620836224002
7.45,0.05559487097167373
7.452777777777778,0.03058126659191663
7.455555555555556,-0.060138521146525695
7.458333333333334,0.2550556844102048
7.461111111111111,-0.49752114850342033
7.4638888888888895,-0.45019473206151583
7.466666666666667,0.4429890248181776
7.469444444444445,-0.36724140553602935
7.472222222222222,-0.08136665866968273
7.4750000000000005,0.04879833660733928
7.477777777777778,0.9985775691429772
7.480555555555556,0.871450733170368
7.483333333333333,-0.7884675922331269
7.486111111111112,0.9729187008860358
7.488888888888889,-0.711806348967561
7.491666666666667,-0.6088940421714162
7.4944444444444445,0.9903788661154198
7.497222222222223,-0.42427705247811254
7.5,0.7077393769987518
7.502777777777778,-0.42886690791160353
7.5055555555555555,0.9952446513657814
7.508333333333334,-0.645231965150945
7.511111111111111,-0.4387937164520268
7.513888888888889,-0.7587254809422163
7.516666666666667,0.9987877773073358
7.519444444444445,0.6364177678829679
7.522222222222222,-0.07583436566686438
7.525,0.9168798678339191
7.527777777777778,-0.59868506540521
7.530555555555556,0.6596467135928437
7.533333333333333,-0.9202452458224127
7.536111111111111,-0.043797949978077
7.538888888888889,0.45484662815456317
7.541666666666667,0.02623058017726461
7.544444444444445,-0.054285871309059035
7.5472222222222225,0.23819254683942737
7.550000000000001,-0.9415265088337152
7.552777777777778,-0.9563475450807408
7.555555555555556,0.7614907774112798
7.558333333333334,-0.7426822789569304
7.561111111111112,-0.7575245314726934
7.563888888888889,-0.9922870789364011
7.566666666666667,-0.08221645362344664
7.569444444444445,0.02343665939656128
7.572222222222223,-0.9982848927901075
7.575,0.4368463005485986
7.577777777777778,-0.997197674862185
7.580555555555556,0.8788600298146704
7.583333333333334,-0.8331059440701823
7.586111111111111,0.9235129535622324
7.5888888888888895,-0.90243151554158
7.591666666666667,0.9727914062480588
7.594444444444445,-0.4800770843499725
7.597222222222222,-0.63027832229644
7.6000000000000005,0.1988610298077671
7.602777777777778,0.9152691155228231
7.605555555555556,0.9997840096773304
7.608333333333333,0.06600815957260442
7.611111111111112,0.3949096487032531
7.613888888888889,-0.34600351412958114
7.616666666666667,-0.9550685660051975
7.6194444444444445,-0.05048353586320329
7.622222222222223,0.9999985618085245
7.625,-0.9506484383679987
7.627777777777778,0.9992065482977255
7.6305555555555555,-0.9087995695868378
7.633333333333334,-0.2860592955335325
7.636111111111111,0.999744076183456
7.638888888888889,-0.07078377564117876
7.641666666666667,0.5766986340645107
7.644444444444445,-0.20119264451835533
7.647222222222222,0.5178991161438243
7.65,0.9738174134733469
7.652777777777778,-0.45211180244168786
7.655555555555556,0.9376831614741532
7.658333333333333,-0.36019245969872915
7.661111111111111,-0.2018294619034638
7.663888888888889,0.6009461173343387
7.666666666666667,-0.3153158686601278
7.669444444444445,0.7149747043918352
7.6722222222222225,0.14669763727224822
7.675000000000001,0.23908578191299537
7.677777777777778,-0.5439953496028922
7.680555555555556,0.9257360119860896
7.683333333333334,-0.4312613069002652
7.686111111111112,0.9417317114333337
7.688888888888889,-0.44921728656453525
7.691666666666667,-0.15044835143916074
7.694444444444445,-0.23068542797126623
7.697222222222223,-0.3063535123441188
7.7,0.42343527955452653
7.702777777777778,-0.912569641955317
7.705555555555556,-0.08546945234781515
7.708333333333334,0.9308528242190958
7.711111111111111,-0.931785010593678
7.7138888888888895,0.6217459827100219
7.716666666666667,-0.06077821432607669
7.719444444444445,0.22435424893672934
7.722222222222222,0.9979039745019457
7.7250000000000005,-0.10536654361299508
7.727777777777778,-0.88757300056045
7.730555555555556,0.15718328905118426
7.733333333333333,0.4932239350538213
7.736111111111112,-0.9961923167450721
7.738888888888889,-0.8040459883558678
7.741666666666667,-0.5498093125542917
7.7444444444444445,-0.6440617521257345
7.747222222222223,0.35997202681812795
7.75,-0.8313486565114868
7.752777777777778,0.9764129682278905
7.7555555555555555,-0.4810624987869063
7.758333333333334,-0.9627714872308667
7.761111111111111,-0.5770224501013126
7.763888888888889,0.26700606016443906
7.766666666666667,0.9843494804676713
7.769444444444445,0.8809579120177488
7.772222222222222,-0.23083688586567283
7.775,-0.970114319277062
7.777777777777778,0.2411052071723032
7.780555555555556,-0.9029014559221262
7.783333333333333,0.47143077859205423
7.786111111111111,-0.9767894492953944
7.788888888888889,0.9684352149142571
7.791666666666667,-0.9544524543090244
7.794444444444445,-0.03261770958832092
7.7972222222222225,-0.9848581060452474
7.800000000000001,0.1099427514204287
7.802777777777778,0.45824687464461916
7.805555555555556,0.09175644747028043
7.808333333333334,-0.6846272836728807
7.811111111111112,0.9332307338301095
7.813888888888889,-0.7297523629715568
7.816666666666667,0.523304290777723
7.819444444444445,0.9791785369001093
7.822222222222223,-0.9858493446959522
7.825,0.9526347561539151
7.827777777777778,-0.5632208241055884
7.830555555555556,-0.3366892863081755
7.833333333333334,-0.40268869705499205
7.836111111111111,-0.5424823313091107
7.8388888888888895,-0.9729374517771281
7.841666666666667,0.9035676276051267
7.844444444444445,-0.9998589434607303
7.847222222222222,0.9999829582857396
7.8500000000000005,-0.8964654706223953
7.852777777777778,0.9996010496841223
7.855555555555556,-0.6959621428722446
7.858333333333333,0.953939371265444
7.861111111111112,0.045964776416257215
7.863888888888889,0.3900675582823448
7.866666666666667,0.114775984764959
7.8694444444444445,-0.30647403126832123
7.872222222222223,0.9709318615861695
7.875,-0.22185313669782952
7.877777777777778,-0.5929095848715282
7.8805555555555555,-0.4379557492909972
7.883333333333334,0.27197066960101884
7.886111111111111,0.9871462858569889
7.888888888888889,0.10939834127247655
7.891666666666667,-0.8236973640331166
7.894444444444445,-0.44282823635922736
7.897222222222222,0.7898786798347031
7.9,-0.6265494046887418
7.902777777777778,-0.786141097110061
7.905555555555556,0.9935191949043682
7.908333333333333,-0.12945475589911923
7.911111111111111,-0.9767157803295298
7.913888888888889,0.9990055452965166
7.916666666666667,-0.8347055678481905
7.919444444444445,0.17240837256166938
7.9222222222222225,-0.20406813855397649
7.925000000000001,0.903868518080245
7.927777777777778,-0.994548316042346
7.930555555555556,-0.4254782985305906
7.933333333333334,0.9994647823595316
7.936111111111112,-0.5028463089560384
7.938888888888889,0.8467095986264017
7.941666666666667,-0.9270120426780656
7.944444444444445,0.8635201811928926
7.947222222222223,-0.6788790490172739
7.95,0.6086609504834394
7.952777777777778,-0.4716850590375729
7.955555555555556,-0.9989315505444035
7.958333333333334,-0.3502639500099346
7.961111111111111,-0.874259832470867
7.9638888888888895,0.9999350961847463
7.966666666666667,0.031316578129496654
7.969444444444445,-0.6512420198568638
7.972222222222222,-0.5079382216357109
7.9750000000000005,0.08939868938514721
7.977777777777778,0.8498416813475822
7.980555555555556,-0.39052934151000596
7.983333333333333,-0.5622916747068909
7.986111111111112,0.8627091689101678
7.988888888888889,-0.8222081923254784
7.991666666666667,0.888685303126406
7.9944444444444445,0.7374585540760432
7.997222222222223,0.7405157064219353
8.0,-0.8738170044788494
8.002777777777778,0.9312460599610974
8.005555555555556,0.43727237038549743
8.008333333333333,-0.8313397956768723
8.011111111111111,0.7490922409775201
8.01388888888889,-0.33964577812858554
8.016666666666667,-0.7160544175847205
8.019444444444444,-0.2884326039385435
8.022222222222222,0.6675175018988534
8.025,-0.9416974739932624
8.027777777777779,0.9717997711530258
8.030555555555555,0.12500809544470856
8.033333333333333,0.16435907832256097
8.036111111111111,0.540917270794022
8.03888888888889,-0.08086999280443546
8.041666666666668,-0.9351784704807565
8.044444444444444,-0.6904475994204304
8.047222222222222,0.4142884475386009
8.05,-0.8901716744468798
8.052777777777779,0.19666781988980492
8.055555555555555,-0.6228468399911326
8.058333333333334,-0.23278999604843706
8.061111111111112,-0.585947193111379
8.06388888888889,0.9613529620514439
8.066666666666666,-0.9133966349297262
8.069444444444445,0.9353324844251276
8.072222222222223,-0.651724521935286
8.075000000000001,0.9516618542734202
8.077777777777778,0.457853074559533
8.080555555555556,0.09061317875242933
8.083333333333334,-0.8034511336829514
8.086111111111112,-0.19348124464814948
8.088888888888889,-0.8395791428703181
8.091666666666667,0.8583274799225052
8.094444444444445,0.931366833361531
8.097222222222223,-0.14070726529738753
8.1,0.6518433442176637
8.102777777777778,-0.7145515902419006
8.105555555555556,0.801182016479011
8.108333333333334,-0.9987358476258547
8.11111111111111,0.8155742879771047
8.113888888888889,-0.7671102703381293
8.116666666666667,0.909151023243241
8.119444444444445,-0.29452670630601246
8.122222222222222,-0.9995142632322583
8.125,0.1042779521942737
8.127777777777778,0.9116311701695916
8.130555555555556,-0.9233833607502502
8.133333333333333,0.20618578250421965
8.136111111111111,-0.9412883839367623
8.13888888888889,0.9783168183370685
8.141666666666667,0.33028178598022734
8.144444444444444,-0.09862092469222225
8.147222222222222,-0.2966723382718639
8.15,0.9975166780097071
8.152777777777779,-0.8992207438093331
8.155555555555555,0.9040092164134461
8.158333333333333,-0.848700308319751
8.161111111111111,0.9983069152942335
8.16388888888889,-0.4761418866069639
8.166666666666668,-0.9789638342026955
8.169444444444444,0.8703261273822057
8.172222222222222,-0.3634954833031678
8.175,-0.5582415186278262
8.177777777777779,0.537291388320372
8.180555555555555,-0.5242001263828572
8.183333333333334,0.6817363135451839
8.186111111111112,0.5109629052937611
8.18888888888889,0.9598199933103538
8.191666666666666,0.8480113661675717
8.194444444444445,-0.40064513789665673
8.197222222222223,-0.9348262022810239
8.200000000000001,-0.46033129286974067
8.202777777777778,0.999904178112659
8.205555555555556,0.07703570070327535
8.208333333333334,-0.6497593080738113
8.211111111111112,0.9947158261905938
8.213888888888889,-0.993169988523846
8.216666666666667,0.8278611708894881
8.219444444444445,-0.17551009721641056
8.222222222222223,0.13509439322703384
8.225,-0.9308088530553403
8.227777777777778,0.4687809844961916
8.230555555555556,0.8690011203293662
8.233333333333334,-0.7716005475663511
8.23611111111111,0.5908025797671301
8.238888888888889,-0.6536256142523628
8.241666666666667,0.6741740971951825
8.244444444444445,-0.9544675601587698
8.247222222222222,-0.2816967203085041
8.25,-0.7013507769369649
8.252777777777778,0.9240379994470181
8.255555555555556,-0.8530373346214098
8.258333333333333,-0.7109267965850983
8.261111111111111,0.25824455972431604
8.26388888888889,-0.6092341032446887
8.266666666666667,-0.13986030432801072
8.269444444444444,0.686504247331193
8.272222222222222,-0.9452628489003466
8.275,0.9760123181863177
8.277777777777779,-0.9484101258993275
8.280555555555555,0.9766797275037409
8.283333333333333,0.4488458770678573
8.286111111111111,0.32686018884377827
8.28888888888889,-0.9952619695977152
8.291666666666668,0.6681267849832343
8.294444444444444,0.6907350307390426
8.297222222222222,-0.12104659875610271
8.3,-0.47466780422708515
8.302777777777779,-0.08492722045829361
8.305555555555555,0.8434034422651164
8.308333333333334,-0.9543614931298833
8.311111111111112,-0.9373914678303745
8.31388888888889,0.9916768501879119
8.316666666666666,-0.7864663648383237
8.319444444444445,0.9791747361180544
8.322222222222223,0.4897691997444062
8.325000000000001,-0.9749747369018519
8.327777777777778,0.9426993131100866
8.330555555555556,0.9132901357632678
8.333333333333334,0.16124804198925105
8.336111111111112,-0.37723521772662344
8.338888888888889,0.46423856820557025
8.341666666666667,-0.6578771832956448
8.344444444444445,-0.8712688217620662
8.347222222222223,0.07596285950953845
8.35,0.7917566144360004
8.352777777777778,-0.9947409925382698
8.355555555555556,-0.5521345273431902
8.358333333333334,-0.18772497436390917
8.36111111111111,0.12094561093242441
8.363888888888889,-0.34351370698876776
8.366666666666667,0.995166499846208
8.369444444444445,-0.4886476161352345
8.372222222222222,-0.7772783783192473
8.375,0.9037901072103508
8.377777777777778,0.08411380938902713
8.380555555555556,-0.6002100474741467
8.383333333333333,0.9182084502241434
8.386111111111111,-0.9977896370058587
8.38888888888889,0.5347087720535783
8.391666666666667,0.3824722692578205
8.394444444444444,0.8540545244283493
8.397222222222222,-0.6691084629910646
8.4,0.6388118586235436
8.402777777777779,-0.7547751617937427
8.405555555555555,0.9287792823226768
8.408333333333333,-0.5168035673137381
8.411111111111111,0.9996650417039147
8.41388888888889,-0.3838383123775319
8.416666666666668,-0.9892521569086552
8.419444444444444,0.9064865170173286
8.422222222222222,-0.06185898908467181
8.425,0.2886679143970163
8.427777777777779,-0.15204969150045122
8.430555555555555,-0.6819971704898312
8.433333333333334,0.991987591353875
8.436111111111112,-0.4269910766575957
8.43888888888889,0.7803826715339166
8.441666666666666,-0.8732548201715048
8.444444444444445,0.9795256796099572
8.447222222222223,-0.8159656076228916
8.450000000000001,-0.6714708035063885
8.452777777777778,-0.511570338405339
8.455555555555556,0.13396246483770377
8.458333333333334,0.785566161311361
8.461111111111112,-0.8230590449831899
8.463888888888889,0.12091199875394418
8.466666666666667,-0.3856550279123201
8.469444444444445,0.7380926877921311
8.472222222222223,0.33105828908272994
8.475,-0.5437518663285524
8.477777777777778,0.9416468720918183
8.480555555555556,-0.3838381128117189
8.483333333333334,0.6365125009861297
8.48611111111111,-0.401166676298813
8.488888888888889,0.9716106573228126
8.491666666666667,-0.6470935386119943
8.494444444444445,0.10516948051965763
8.497222222222222,0.8693280949486878
8.5,-0.9997890159671595
8.502777777777778,0.8083487783503537
8.505555555555556,-0.9840246007772141
8.508333333333333,-0.07471995125313677
8.511111111111111,0.7656830977685257
8.51388888888889,-0.8663348939439051
8.516666666666667,0.9471494067787406
8.519444444444444,-0.9832016595871796
8.522222222222222,0.9434955195365354
8.525,0.14927842505248182
8.527777777777779,0.5938886277417563
8.530555555555555,-0.7422828388315716
8.533333333333333,0.9493693736129555
8.536111111111111,-0.9999975637924111
8.53888888888889,-0.8037389593133132
8.541666666666668,0.8347166555066338
8.544444444444444,0.27660030549900916
8.547222222222222,0.41176354933489795
8.55,0.21941965281589637
8.552777777777779,-0.817423937379275
8.555555555555555,0.709554705461219
8.558333333333334,-0.6103641178918637
8.561111111111112,-0.9985869064335312
8.56388888888889,-0.7559596545196563
8.566666666666666,0.7515952540945763
8.569444444444445,-0.38554139305891166
8.572222222222223,0.7402744076843615
8.575000000000001,-0.9426404775367547
8.577777777777778,0.6600544144396188
8.580555555555556,0.7992236971198762
8.583333333333334,-0.9152066547365618
8.586111111111112,0.23446297177764838
8.588888888888889,0.21420752097230536
8.591666666666667,-0.7778860490582641
8.594444444444445,-0.11331928869988941
8.597222222222223,0.2084693319954704
8.6,0.5967356254939554
8.602777777777778,0.8655830560649821
8.605555555555556,-0.5515734484719775
8.608333333333334,0.6092727999604194
8.61111111111111,-0.9999937117867145
8.613888888888889,0.9992961093030392
8.616666666666667,-0.9024907951443271
8.619444444444445,0.8845553907699065
8.622222222222222,-0.4674044008220141
8.625,0.8392918111939778
8.627777777777778,0.7069413475741295
8.630555555555556,-0.2033371345215274
8.633333333333333,0.22031726163477092
8.636111111111111,-0.8678269676946342
8.63888888888889,0.9666150353008185
8.641666666666667,-0.8816906712282796
8.644444444444444,0.07796382638961
8.647222222222222,-0.04170891160648263
8.65,0.0231106120937349
8.652777777777779,0.7825186950670668
8.655555555555555,-0.22162154750096044
8.658333333333333,0.9943123193792653
8.661111111111111,-0.07274833939453323
8.66388888888889,-0.9932832920486593
8.666666666666668,0.990902148644964
8.669444444444444,0.7379462827358954
8.672222222222222,0.7214664174867592
8.675,-0.4736056050711639
8.677777777777779,-0.9939679126052969
8.680555555555555,-0.6079560159788499
8.683333333333334,-0.9094261677490569
8.686111111111112,0.604869371128464
8.68888888888889,0.8135776033702774
8.691666666666666,-0.7226942737502681
8.694444444444445,0.9991300310355876
8.697222222222223,-0.9742195058093662
8.700000000000001,0.9155331179315855
8.702777777777778,-0.8563655701906762
8.705555555555556,0.9916522486400055
8.708333333333334,-0.9413341419795335
8.711111111111112,0.8107784304426553
8.713888888888889,-0.9270296357511515
8.716666666666667,0.979196480775139
8.719444444444445,0.0169573400611832
8.722222222222223,-0.27927135541912157
8.725,0.9526834392166883
8.727777777777778,-0.8831412119261418
8.730555555555556,-0.07964804966107465
8.733333333333334,0.9392234446509814
8.73611111111111,-0.8976609549458937
8.738888888888889,0.7407598657935944
8.741666666666667,0.29700770771550405
8.744444444444445,0.990126276492576
8.747222222222222,-0.9692795057518034
8.75,-0.9997071691005146
8.752777777777778,0.9017052655592739
8.755555555555556,-0.9659718718712704
8.758333333333333,0.7966637622258147
8.761111111111111,-0.9758912440292391
8.76388888888889,0.7585527904239255
8.766666666666667,0.34631613374349385
8.769444444444444,-0.810497015863441
8.772222222222222,0.4930742293538892
8.775,0.4850283478833745
8.777777777777779,0.16477171482529007
8.780555555555555,0.3732157942429324
8.783333333333333,-0.9891440751441373
8.786111111111111,-0.04638080930012025
8.78888888888889,-0.8212018218656248
8.791666666666668,0.18231300968395764
8.794444444444444,0.13948040625958538
8.797222222222222,-0.9551024061711514
8.8,0.9855850326424648
8.802777777777779,-0.9728526536987161
8.805555555555555,0.7808555483667624
8.808333333333334,-0.0724009881769119
8.811111111111112,0.6229393866413665
8.81388888888889,0.5902560257209691
8.816666666666666,-0.4879493260293527
8.819444444444445,0.33773999990921616
8.822222222222223,-0.29307773479664767
8.825000000000001,0.44215429592061395
8.827777777777778,-0.932458105423217
8.830555555555556,0.5794289451460704
8.833333333333334,0.5890769536574553
8.836111111111112,-0.640014218125057
8.838888888888889,0.9440453732727017
8.841666666666667,-0.7394409107684263
8.844444444444445,0.9894077969283948
8.847222222222223,-0.3314151776085393
8.85,-0.9396430706017823
8.852777777777778,0.9999997679539491
8.855555555555556,-0.9399057222162901
8.858333333333334,0.5728064910651397
8.86111111111111,0.8769059418248631
8.863888888888889,0.1829524469000823
8.866666666666667,0.2079478927253579
8.869444444444445,-0.4967815983784067
8.872222222222222,0.9980524932564716
8.875,-0.11946357436762536
8.877777777777778,-0.8678143637268823
8.880555555555556,0.1407385343658988
8.883333333333333,-0.9970468985259535
8.886111111111111,0.09632586798282343
8.88888888888889,0.3235251559074113
8.891666666666667,0.9969470588207532
8.894444444444444,0.3079637868492518
8.897222222222222,-0.090533190092722
8.9,-0.2044337717475695
8.902777777777779,0.8715091004926562
8.905555555555557,-0.9181957897714346
8.908333333333333,0.3853861890298559
8.911111111111111,-0.23386008359537455
8.91388888888889,0.9135193917429608
8.916666666666668,0.3711855424637077
8.919444444444444,0.8780290276796474
8.922222222222222,-0.0016402247362148534
8.925,-0.9715807893991741
8.927777777777779,0.44257573102844294
8.930555555555555,-0.5055638783163997
8.933333333333334,0.7641422676463131
8.936111111111112,-0.03660255340432477
8.93888888888889,0.036661515533134084
8.941666666666666,0.4231463141153113
8.944444444444445,-0.48625036241017366
8.947222222222223,0.6587340711165871
8.950000000000001,-0.7108692052268335
8.952777777777778,0.9289669508275762
8.955555555555556,-0.9263130710915507
8.958333333333334,0.7399806142130319
8.961111111111112,0.6839761262131746
8.963888888888889,-0.31592595046330474
8.966666666666667,0.7384187621803148
8.969444444444445,-0.942005019499382
8.972222222222223,0.795509766696492
8.975,0.31993981544092787
8.977777777777778,0.9974335727699791
8.980555555555556,-0.999905251400326
8.983333333333334,0.8647869807171679
8.98611111111111,-0.9892001577245431
8.988888888888889,0.9889035262006505
8.991666666666667,-0.9349136375009439
8.994444444444445,0.5163182481828082
8.997222222222222,-0.9034154072905606
9.0,-0.44295446847216674
9.002777777777778,0.9915131710120304
9.005555555555556,-0.5163162132096417
9.008333333333333,0.9805206172106136
9.011111111111111,0.08834800259605904
9.01388888888889,-0.17166884914896824
9.016666666666667,-0.4512925044872422
